Date,Value
2018-01-02,1.0
2018-01-03,1.0
2018-01-04,1.0
2018-01-05,1.0
2018-01-08,1.0243276923826679
2018-01-09,1.022997488831695
2018-01-10,1.0227144537262602
2018-01-11,1.0309464361703433
2018-01-12,1.041074869854905
2018-01-16,1.0380035726052617
2018-01-17,1.0468847285873633
2018-01-18,1.0490637982829947
2018-01-19,1.0542905335122152
2018-01-22,1.070671178370223
2018-01-23,1.0815581136272219
2018-01-24,1.0755836642969467
2018-01-25,1.081651339710577
2018-01-26,1.1250982019174058
2018-01-29,1.129629235671184
2018-01-30,1.1119747533039614
2018-01-31,1.1196924562228912
2018-02-01,1.1186670553821103
2018-02-02,1.1085746619724959
2018-02-05,1.08875989173744
2018-02-06,1.087596579631754
2018-02-07,1.0823426598121835
2018-02-08,1.0836808573938952
2018-02-09,1.074332000733056
2018-02-12,1.0906281401823152
2018-02-13,1.0868738273395053
2018-02-14,1.1201582494177476
2018-02-15,1.1362083937362943
2018-02-16,1.1334293802158621
2018-02-20,1.144897346975395
2018-02-21,1.1260282441029927
2018-02-22,1.1257273297409633
2018-02-23,1.140168123227731
2018-02-26,1.1473446820459396
2018-02-27,1.146590998162205
2018-02-28,1.1486092746225942
2018-03-01,1.1445922373952924
2018-03-02,1.1557295818540871
2018-03-05,1.1616158541465698
2018-03-06,1.1664516578120716
2018-03-07,1.1711785445476375
2018-03-08,1.1793035647115981
2018-03-09,1.1831155741642378
2018-03-12,1.1741201432332855
2018-03-13,1.1627591814353089
2018-03-14,1.1588430376673227
2018-03-15,1.1333462582018332
2018-03-16,1.1209690775851144
2018-03-19,1.1077164620760875
2018-03-20,1.111267021311547
2018-03-21,1.1103661404389373
2018-03-22,1.101728216266789
2018-03-23,1.0966408513300998
2018-03-26,1.1175908472249507
2018-03-27,1.0882693425675098
2018-03-28,1.0712673899878644
2018-03-29,1.0712673899878644
2018-04-02,1.0571832955081026
2018-04-03,1.0677787882819352
2018-04-04,1.076269842474437
2018-04-05,1.0889460100816342
2018-04-06,1.0768981897004344
2018-04-09,1.0720256762497338
2018-04-10,1.0793003856821333
2018-04-11,1.0786724953104216
2018-04-12,1.0922599298121163
2018-04-13,1.083190673551012
2018-04-16,1.088429163898459
2018-04-17,1.098621746020536
2018-04-18,1.0998328028225361
2018-04-19,1.0919611251640364
2018-04-20,1.0884604727435068
2018-04-23,1.086530177676045
2018-04-24,1.0868555075332567
2018-04-25,1.0854213110140638
2018-04-26,1.098776624429278
2018-04-27,1.0952732988482838
2018-04-30,1.0895816045685203
2018-05-01,1.1008375135022093
2018-05-02,1.0993773807713092
2018-05-03,1.094355536615149
2018-05-04,1.1014115340224833
2018-05-07,1.109010111900254
2018-05-08,1.1154249383750372
2018-05-09,1.1262831640990647
2018-05-10,1.1285467722462146
2018-05-11,1.1216035965124405
2018-05-14,1.1195131506711986
2018-05-15,1.1175909905897257
2018-05-16,1.1176819790883652
2018-05-17,1.1189250945818938
2018-05-18,1.1146731078273768
2018-05-21,1.126312870113433
2018-05-22,1.1234632423637532
2018-05-23,1.1314269378754136
2018-05-24,1.1321996597460715
2018-05-25,1.1360037585182994
2018-05-29,1.1332354190028606
2018-05-30,1.1378199337462962
2018-05-31,1.132967282114886
2018-06-01,1.1444012043406029
2018-06-04,1.13432066173399
2018-06-05,1.132757284299359
2018-06-06,1.1353628120222952
2018-06-07,1.1293701146290067
2018-06-08,1.1237420809342513
2018-06-11,1.1400377239139687
2018-06-12,1.1368225184982306
2018-06-13,1.149632196185216
2018-06-14,1.1391250132352337
2018-06-15,1.1337998326980312
2018-06-18,1.1642474296591343
2018-06-19,1.1560163224026034
2018-06-20,1.1470049202031762
2018-06-21,1.1193276937597143
2018-06-22,1.10356311455477
2018-06-25,1.0771349431134833
2018-06-26,1.0771349431134833
2018-06-27,1.0771349431134833
2018-06-28,1.0771349431134833
2018-06-29,1.0771349431134833
2018-07-02,1.0673317784029168
2018-07-03,1.0499503855463788
2018-07-05,1.0554485565264689
2018-07-06,1.0623369672808158
2018-07-09,1.065996988651844
2018-07-10,1.0617489368226143
2018-07-11,1.0549239619028146
2018-07-12,1.0605799734122119
2018-07-13,1.0389604562757762
2018-07-16,1.052122150662238
2018-07-17,1.0433342378089652
2018-07-18,1.0426960185470655
2018-07-19,1.0382285445777073
2018-07-20,1.0315274249195778
2018-07-23,1.0224339403237008
2018-07-24,0.9935342191349088
2018-07-25,1.005265375981792
2018-07-26,1.076956699625545
2018-07-27,1.0834084591976478
2018-07-30,1.0834318810008134
2018-07-31,1.068692721434638
2018-08-01,1.0730565077661671
2018-08-02,1.0617480141185962
2018-08-03,1.0617480141185962
2018-08-06,1.0716016681883365
2018-08-07,1.0771010486723114
2018-08-08,1.0487200855132381
2018-08-09,1.0352304460951836
2018-08-10,1.0341062826754812
2018-08-13,1.046607266908247
2018-08-14,1.064366993803377
2018-08-15,1.05115499817394
2018-08-16,1.043803676291319
2018-08-17,1.061481891538592
2018-08-20,1.0693367810584273
2018-08-21,1.0810620845650911
2018-08-22,1.1065204420136079
2018-08-23,1.159647272146159
2018-08-24,1.1874620008688668
2018-08-27,1.2074999043992662
2018-08-28,1.2181728401512093
2018-08-29,1.2447838206512487
2018-08-30,1.2343366223169936
2018-08-31,1.2453801867173333
2018-09-04,1.2541214091275463
2018-09-05,1.2463058824783138
2018-09-06,1.2532121374258436
2018-09-07,1.2492403106582612
2018-09-10,1.2679637079930788
2018-09-11,1.2682863387251049
2018-09-12,1.2795041451020241
2018-09-13,1.27060589305816
2018-09-14,1.27060589305816
2018-09-17,1.2604249314217546
2018-09-18,1.2743339357974937
2018-09-19,1.2693754503013326
2018-09-20,1.2685086327251476
2018-09-21,1.261298705344956
2018-09-24,1.2644490185312651
2018-09-25,1.2676635135105783
2018-09-26,1.2609615465955528
2018-09-27,1.249269789784181
2018-09-28,1.2551736711485657
2018-10-01,1.2472305345059924
2018-10-02,1.232861341457051
2018-10-03,1.2298478991786685
2018-10-04,1.2287443067894501
2018-10-05,1.2230036612540247
2018-10-08,1.2225979838943348
2018-10-09,1.2266720742006556
2018-10-10,1.20383770349458
2018-10-11,1.20383770349458
2018-10-12,1.20383770349458
2018-10-15,1.2058665292078734
2018-10-16,1.211525926345075
2018-10-17,1.2184131813989159
2018-10-18,1.2159572725858658
2018-10-19,1.2160640386442743
2018-10-22,1.2167199975305947
2018-10-23,1.2183032802882585
2018-10-24,1.2135486364716712
2018-10-25,1.2234192750805444
2018-10-26,1.2179171723652127
2018-10-29,1.2229562532029385
2018-10-30,1.2229562532029385
2018-10-31,1.2229562532029385
2018-11-01,1.2229562532029385
2018-11-02,1.2229562532029385
2018-11-05,1.2229562532029385
2018-11-06,1.2229562532029385
2018-11-07,1.2229562532029385
2018-11-08,1.2229562532029385
2018-11-09,1.2229562532029385
2018-11-12,1.2229562532029385
2018-11-13,1.2229562532029385
2018-11-14,1.2229562532029385
2018-11-15,1.2229562532029385
2018-11-16,1.2229562532029385
2018-11-19,1.2229562532029385
2018-11-20,1.2229562532029385
2018-11-21,1.2229562532029385
2018-11-23,1.2229562532029385
2018-11-26,1.2229562532029385
2018-11-27,1.2229562532029385
2018-11-28,1.2229562532029385
2018-11-29,1.2229562532029385
2018-11-30,1.2229562532029385
2018-12-03,1.2229562532029385
2018-12-04,1.2229562532029385
2018-12-06,1.2229562532029385
2018-12-07,1.2229562532029385
2018-12-10,1.2229562532029385
2018-12-11,1.2229562532029385
2018-12-12,1.2229562532029385
2018-12-13,1.2229562532029385
2018-12-14,1.2229562532029385
2018-12-17,1.2229562532029385
2018-12-18,1.2229562532029385
2018-12-19,1.2229562532029385
2018-12-20,1.2229562532029385
2018-12-21,1.2229562532029385
2018-12-24,1.2229562532029385
2018-12-26,1.2229562532029385
2018-12-27,1.2229562532029385
2018-12-28,1.2229562532029385
2018-12-31,1.2229562532029385
2019-01-02,1.2229562532029385
2019-01-03,1.2229562532029385
2019-01-04,1.2229562532029385
2019-01-07,1.2229562532029385
2019-01-08,1.2229562532029385
2019-01-09,1.2229562532029385
2019-01-10,1.2229562532029385
2019-01-11,1.2229562532029385
2019-01-14,1.2229562532029385
2019-01-15,1.2229562532029385
2019-01-16,1.2229562532029385
2019-01-17,1.2229562532029385
2019-01-18,1.2229562532029385
2019-01-22,1.2229562532029385
2019-01-23,1.2229562532029385
2019-01-24,1.2229562532029385
2019-01-25,1.2229562532029385
2019-01-28,1.2229562532029385
2019-01-29,1.2229562532029385
2019-01-30,1.2229562532029385
2019-01-31,1.2229562532029385
2019-02-01,1.2229562532029385
2019-02-04,1.2229562532029385
2019-02-05,1.2229562532029385
2019-02-06,1.2229562532029385
2019-02-07,1.2229562532029385
2019-02-08,1.2229562532029385
2019-02-11,1.2229562532029385
2019-02-12,1.2229562532029385
2019-02-13,1.2229562532029385
2019-02-14,1.2229562532029385
2019-02-15,1.2229562532029385
2019-02-19,1.2185128182776688
2019-02-20,1.227796559946848
2019-02-21,1.2322969941504773
2019-02-22,1.2525290986044921
2019-02-25,1.2642277313333043
2019-02-26,1.1975511358093864
2019-02-27,1.192954984699975
2019-02-28,1.189203619609719
2019-03-01,1.191433973584568
2019-03-04,1.1695915201878142
2019-03-05,1.1503952209481185
2019-03-06,1.1490481528924466
2019-03-07,1.1579682208426731
2019-03-08,1.1712993196238268
2019-03-11,1.1987456796712388
2019-03-12,1.2017843981087015
2019-03-13,1.2130570282996587
2019-03-14,1.234033888925947
2019-03-15,1.2364844574550502
2019-03-18,1.26208500028628
2019-03-19,1.2716669015303461
2019-03-20,1.2892549427354512
2019-03-21,1.3607207799623366
2019-03-22,1.3141835455826272
2019-03-25,1.2918410241728604
2019-03-26,1.2886966255933618
2019-03-27,1.2707037299960824
2019-03-28,1.270747378134716
2019-03-29,1.2744158875697174
2019-04-01,1.2674112506299098
2019-04-02,1.25471090425525
2019-04-03,1.2493508907723394
2019-04-04,1.1721604677328963
2019-04-05,1.1721604677328963
2019-04-08,1.160372211449233
2019-04-09,1.1490600196607406
2019-04-10,1.192626924899629
2019-04-11,1.1923749302658908
2019-04-12,1.1896884335589784
2019-04-15,1.187672510626799
2019-04-16,1.171023085540733
2019-04-17,1.1361712418911862
2019-04-18,1.1067201911148938
2019-04-22,1.1314440691688572
2019-04-23,1.1593606353313035
2019-04-24,1.1701162181555873
2019-04-25,1.1418403581783727
2019-04-26,1.1569796050096723
2019-04-29,1.15723444575337
2019-04-30,1.148414588936546
2019-05-01,1.133291122478938
2019-05-02,1.168745420351587
2019-05-03,1.1818932493615166
2019-05-06,1.1584991363102053
2019-05-07,1.1222938658322303
2019-05-08,1.126602752175067
2019-05-09,1.119537534116831
2019-05-10,1.1348585577214851
2019-05-13,1.1018987365561417
2019-05-14,1.1093987490281334
2019-05-15,1.1098341025374543
2019-05-16,1.0982825903115687
2019-05-17,1.0938963653261427
2019-05-20,1.078462654763583
2019-05-21,1.0765454226279516
2019-05-22,1.0758482618122567
2019-05-23,1.067342761566881
2019-05-24,1.0684233954046825
2019-05-28,1.0721546829985291
2019-05-29,1.0492640578475028
2019-05-30,1.0577810388002398
2019-05-31,1.037899007509294
2019-06-03,1.0365823767124023
2019-06-04,1.0365823767124023
2019-06-05,1.0365823767124023
2019-06-06,1.0365823767124023
2019-06-07,1.0365823767124023
2019-06-10,1.0328110563991433
2019-06-11,1.0047064724853345
2019-06-12,1.0203554883545625
2019-06-13,1.0170000490130535
2019-06-14,1.0099970667859857
2019-06-17,1.009101528752819
2019-06-18,1.0105341406838795
2019-06-19,1.0717916213145804
2019-06-20,1.0726390317756644
2019-06-21,1.0590506885930777
2019-06-24,1.0201199184308944
2019-06-25,0.9793546212626363
2019-06-26,0.963445467266011
2019-06-27,0.963445467266011
2019-06-28,0.963445467266011
2019-07-01,0.9483859314406469
2019-07-02,0.9603560635237915
2019-07-03,0.9617369890347148
2019-07-05,0.9670432779621948
2019-07-08,0.9865900781388612
2019-07-09,1.0049400533123245
2019-07-10,1.0100019466931651
2019-07-11,0.9926804893162199
2019-07-12,0.9871797092864547
2019-07-15,1.0269144913446095
2019-07-16,1.0083823157797824
2019-07-17,1.0169726963205599
2019-07-18,1.0169813498328018
2019-07-19,1.0077610487811781
2019-07-22,1.021092746737183
2019-07-23,1.022954721122716
2019-07-24,1.0313351129221906
2019-07-25,1.0305525633724728
2019-07-26,1.040851421273535
2019-07-29,0.9988289533339934
2019-07-30,1.004738722654097
2019-07-31,0.9685981646963104
2019-08-01,0.9685981646963104
2019-08-02,0.9685981646963104
2019-08-05,0.9723244620844465
2019-08-06,0.9852288823920866
2019-08-07,0.9925119867750737
2019-08-08,1.0079420254842573
2019-08-09,1.017385185978057
2019-08-12,1.01132600619616
2019-08-13,1.0176783971744943
2019-08-14,1.0006047272796055
2019-08-15,1.000838893790943
2019-08-16,1.009302479519868
2019-08-19,1.0120464785366536
2019-08-20,1.0195349494446178
2019-08-21,1.0327739303900554
2019-08-22,1.0322158990967378
2019-08-23,1.0231453311224508
2019-08-26,1.037966105755526
2019-08-27,1.0454212585765932
2019-08-28,1.0385371752769097
2019-08-29,1.0377735002658555
2019-08-30,1.0320743220925623
2019-09-03,1.032553930049588
2019-09-04,1.0325894597811627
2019-09-05,1.0353595655825423
2019-09-06,1.027560774098839
2019-09-09,1.0088880074346922
2019-09-10,0.9975287666981361
2019-09-11,0.9975287666981361
2019-09-12,0.9975287666981361
2019-09-13,0.9975287666981361
2019-09-16,1.0119195217149832
2019-09-17,1.0235954765552404
2019-09-18,1.038008523156663
2019-09-19,1.0288140824977852
2019-09-20,1.016401141087012
2019-09-23,1.0278056271673293
2019-09-24,1.0132082769509263
2019-09-25,1.0365884179280853
2019-09-26,1.032387366762448
2019-09-27,0.9996566528104092
2019-09-30,1.0044150796026645
2019-10-01,0.9997398207829251
2019-10-02,0.9862684004387698
2019-10-03,0.993818468793892
2019-10-04,1.0123384178822996
2019-10-07,1.0109037300537098
2019-10-08,0.9841639204625081
2019-10-09,1.00001484047116
2019-10-10,1.0013727588026933
2019-10-11,1.0135237198886207
2019-10-14,1.0085493021380705
2019-10-15,1.0267827707171655
2019-10-16,1.0090360045996178
2019-10-17,1.0167682352197056
2019-10-18,1.0080465445656284
2019-10-21,1.0276926641938373
2019-10-22,1.0198616369028637
2019-10-23,1.004226939356646
2019-10-24,1.073206301296714
2019-10-25,1.0820866590097917
2019-10-28,1.1105383096823718
2019-10-29,1.0902554441052603
2019-10-30,1.100408954717421
2019-10-31,1.061297282283601
2019-11-01,1.061297282283601
2019-11-04,1.0621971657268832
2019-11-05,1.061491579441765
2019-11-06,1.0726452644762863
2019-11-07,1.0850956199984463
2019-11-08,1.0850825835151914
2019-11-11,1.0957924116107596
2019-11-12,1.1015821150431986
2019-11-13,1.0997860669384198
2019-11-14,1.1102319612492169
2019-11-15,1.1312651306021138
2019-11-18,1.125733044156688
2019-11-19,1.1305401127239167
2019-11-20,1.1132504158340084
2019-11-21,1.098262279756816
2019-11-22,1.0662367925388399
2019-11-25,1.0577952345850417
2019-11-26,1.035509348231102
2019-11-27,1.0448474705207549
2019-11-29,1.0392481204870447
2019-12-02,1.0412127235194646
2019-12-03,1.0455664586301654
2019-12-04,1.0513205842616573
2019-12-05,1.0462573164323021
2019-12-06,1.054939052941506
2019-12-09,1.051127214716527
2019-12-10,1.0724254160129727
2019-12-11,1.0788068414878105
2019-12-12,1.1317237372587057
2019-12-13,1.110291251474877
2019-12-16,1.1622688992266594
2019-12-17,1.1640512751914827
2019-12-18,1.1796320328263379
2019-12-19,1.2036465746084148
2019-12-20,1.2238620535914229
2019-12-23,1.2626462906487164
2019-12-24,1.2865591117741348
2019-12-26,1.2965837728705338
2019-12-27,1.289643175495867
2019-12-30,1.2595134033406117
2019-12-31,1.264102272608435
2020-01-02,1.2771747538347813
2020-01-03,1.2771747538347813
2020-01-06,1.2951585354364452
2020-01-07,1.2902320055705703
2020-01-08,1.2950802021700414
2020-01-09,1.3242387005651024
2020-01-10,1.3151212672672359
2020-01-13,1.337245592418606
2020-01-14,1.3207611593154227
2020-01-15,1.3223699464747019
2020-01-16,1.347071033512653
2020-01-17,1.3700832365925892
2020-01-21,1.3669839578585128
2020-01-22,1.3744935430380418
2020-01-23,1.381542810378535
2020-01-24,1.361457369770469
2020-01-27,1.3138671685508847
2020-01-28,1.3138671685508847
2020-01-29,1.3138671685508847
2020-01-30,1.3138671685508847
2020-01-31,1.3138671685508847
2020-02-03,1.3368235613343606
2020-02-04,1.359369076257658
2020-02-05,1.3454798004332646
2020-02-06,1.3418601852475924
2020-02-07,1.349871045026874
2020-02-10,1.3885779068181554
2020-02-11,1.3909798466459693
2020-02-12,1.4783995444107572
2020-02-13,1.4946371083914975
2020-02-14,1.497038424452532
2020-02-18,1.531978833562924
2020-02-19,1.599406790985893
2020-02-20,1.583516553951113
2020-02-21,1.5342014787654312
2020-02-24,1.4792307753522929
2020-02-25,1.4604350887179423
2020-02-26,1.4640561350947463
2020-02-27,1.4388852798397533
2020-02-28,1.4388852798397533
2020-03-02,1.4542398501609035
2020-03-03,1.4379605821183858
2020-03-04,1.4879608245200944
2020-03-05,1.4690925333773686
2020-03-06,1.464734393827316
2020-03-09,1.4085539916079228
2020-03-10,1.4085539916079228
2020-03-11,1.4085539916079228
2020-03-12,1.4085539916079228
2020-03-13,1.4085539916079228
2020-03-16,1.4085539916079228
2020-03-17,1.4085539916079228
2020-03-18,1.4085539916079228
2020-03-19,1.4085539916079228
2020-03-20,1.4085539916079228
2020-03-23,1.4085539916079228
2020-03-24,1.4085539916079228
2020-03-25,1.4085539916079228
2020-03-26,1.4085539916079228
2020-03-27,1.4085539916079228
2020-03-30,1.4085539916079228
2020-03-31,1.4085539916079228
2020-04-01,1.4085539916079228
2020-04-02,1.4085539916079228
2020-04-03,1.4085539916079228
2020-04-06,1.4085539916079228
2020-04-07,1.4085539916079228
2020-04-08,1.4085539916079228
2020-04-09,1.4085539916079228
2020-04-13,1.397659038066899
2020-04-14,1.4708228634299436
2020-04-15,1.520404615174314
2020-04-16,1.544708350059523
2020-04-17,1.5342961942124056
2020-04-20,1.56850885159254
2020-04-21,1.505331835108739
2020-04-22,1.505331835108739
2020-04-23,1.505331835108739
2020-04-24,1.505331835108739
2020-04-27,1.4457976165709416
2020-04-28,1.4262829765595582
2020-04-29,1.4168316735244213
2020-04-30,1.4013474457564896
2020-05-01,1.3801623694765706
2020-05-04,1.4492041818797694
2020-05-05,1.5222220988052715
2020-05-06,1.5490958766765317
2020-05-07,1.5450488313843178
2020-05-08,1.5340015416718458
2020-05-11,1.5948463647405502
2020-05-12,1.5642602128381031
2020-05-13,1.6033285301513551
2020-05-14,1.5951299881403425
2020-05-15,1.6171464479097346
2020-05-18,1.5629651500989246
2020-05-19,1.576526465226316
2020-05-20,1.6298617933614201
2020-05-21,1.6369444878603643
2020-05-22,1.674415815455247
2020-05-26,1.593100041625727
2020-05-27,1.5773347156930184
2020-05-28,1.5773347156930184
2020-05-29,1.5773347156930184
2020-06-01,1.6291406773475607
2020-06-02,1.6172255856426876
2020-06-03,1.6139197000854986
2020-06-04,1.5659838865913263
2020-06-05,1.504200283158518
2020-06-08,1.5083993072871857
2020-06-09,1.5008227900392292
2020-06-10,1.5250822498951253
2020-06-11,1.4705852663504477
2020-06-12,1.463927573092652
2020-06-15,1.5252452685767757
2020-06-16,1.5488786154959957
2020-06-17,1.5351575859312852
2020-06-18,1.5481248137274854
2020-06-19,1.5330247184742145
2020-06-22,1.5801280883640234
2020-06-23,1.5666705336509594
2020-06-24,1.5465678060716477
2020-06-25,1.5677799864493727
2020-06-26,1.498715645724874
2020-06-29,1.4802379948786273
2020-06-30,1.5121606647176278
2020-07-01,1.4974760801292257
2020-07-02,1.5113091926729454
2020-07-06,1.4878541771865255
2020-07-07,1.4922944393287172
2020-07-08,1.5402411723588099
2020-07-09,1.568229315405377
2020-07-10,1.567633307957776
2020-07-13,1.4708772015597882
2020-07-14,1.4617051284938851
2020-07-15,1.4617051284938851
2020-07-16,1.4617051284938851
2020-07-17,1.4617051284938851
2020-07-20,1.5530584022618386
2020-07-21,1.5053944306966767
2020-07-22,1.5068305750587798
2020-07-23,1.420403956132144
2020-07-24,1.4172590399198477
2020-07-27,1.494067933666682
2020-07-28,1.4663797521048747
2020-07-29,1.4929491699789943
2020-07-30,1.5089313262213713
2020-07-31,1.4897981161462215
2020-08-03,1.5317750453628562
2020-08-04,1.520770351884864
2020-08-05,1.520612441227592
2020-08-06,1.4872126508220007
2020-08-07,1.4048709233868486
2020-08-10,1.3653518116686334
2020-08-11,1.3003934808530975
2020-08-12,1.436105137337265
2020-08-13,1.4629027549027271
2020-08-14,1.4733617934126677
2020-08-17,1.5168629384212498
2020-08-18,1.5107704839003093
2020-08-19,1.506201051268666
2020-08-20,1.5196686821033438
2020-08-21,1.528005792730585
2020-08-24,1.5052289455988652
2020-08-25,1.5252894628161413
2020-08-26,1.5327603160773444
2020-08-27,1.5059501485907423
2020-08-28,1.5187720939621348
2020-08-31,1.5862420194443927
2020-09-01,1.627776538392511
2020-09-02,1.5954965687211806
2020-09-03,1.5217414038454737
2020-09-04,1.5217414038454737
2020-09-08,1.522848373029365
2020-09-09,1.5373338999700041
2020-09-10,1.533174859442892
2020-09-11,1.5257423297252266
2020-09-14,1.533496839273066
2020-09-15,1.550302368779839
2020-09-16,1.5476959918242132
2020-09-17,1.5303997146105832
2020-09-18,1.5361680948123402
2020-09-21,1.5598245956083114
2020-09-22,1.5777691203615223
2020-09-23,1.5469048555282698
2020-09-24,1.5352951621416193
2020-09-25,1.5509601847537218
2020-09-28,1.5602898901041873
2020-09-29,1.5582887503852998
2020-09-30,1.5673139750414362
2020-10-01,1.5873046595513245
2020-10-02,1.569463793697506
2020-10-05,1.5902884590436734
2020-10-06,1.5888390810936035
2020-10-07,1.6027227296492277
2020-10-08,1.598310223996128
2020-10-09,1.609216185687241
2020-10-12,1.6180979520396277
2020-10-13,1.6382042757595943
2020-10-14,1.615292267387981
2020-10-15,1.6006891065472713
2020-10-16,1.602001592153228
2020-10-19,1.580866822676901
2020-10-20,1.5823849526556668
2020-10-21,1.5783801640543742
2020-10-22,1.5783801640543742
2020-10-23,1.5783801640543742
2020-10-26,1.567711989821059
2020-10-27,1.567126611184682
2020-10-28,1.5510400116812764
2020-10-29,1.574371653437714
2020-10-30,1.538517789316144
2020-11-02,1.5409533229815624
2020-11-03,1.5510166331492479
2020-11-04,1.5866541780497108
2020-11-05,1.6744988253420674
2020-11-06,1.6878144492711291
2020-11-09,1.6334094542596467
2020-11-10,1.6204852842817767
2020-11-11,1.6439387444309217
2020-11-12,1.6322429462011834
2020-11-13,1.6333259859503717
2020-11-16,1.6560978375553883
2020-11-17,1.6497054128069082
2020-11-18,1.6481691837766472
2020-11-19,1.6521719929320988
2020-11-20,1.633598987095865
2020-11-23,1.6572531508385524
2020-11-24,1.6777312150784414
2020-11-25,1.670009976692402
2020-11-27,1.6686671832487714
2020-11-30,1.603902265404832
2020-12-01,1.6266881577261794
2020-12-02,1.6631317851735177
2020-12-03,1.686896778689015
2020-12-04,1.7338561376731036
2020-12-07,1.7740429552203034
2020-12-08,1.771802923969203
2020-12-09,1.7232789875118717
2020-12-10,1.7633377120392226
2020-12-11,1.711286147428098
2020-12-14,1.7321459192427122
2020-12-15,1.7154943089272767
2020-12-16,1.6945178152654958
2020-12-17,1.7394816163458495
2020-12-18,1.7925478802655483
2020-12-21,1.746715695810472
2020-12-22,1.7624699327624334
2020-12-23,1.7254993247379158
2020-12-24,1.752028157534819
2020-12-28,1.7198903768401093
2020-12-29,1.7247717002695278
2020-12-30,1.7666653612282701
2020-12-31,1.7677508332797154
2021-01-04,1.7809892805515348
2021-01-05,1.7998554498148536
2021-01-06,1.7910303693004872
2021-01-07,1.8725433808064196
2021-01-08,1.959376543828808
2021-01-11,1.9181090076936782
2021-01-12,1.9227268024438193
2021-01-13,1.8982010213747014
2021-01-14,1.8954645214147683
2021-01-15,1.8745645806099431
2021-01-19,1.9198515060149848
2021-01-20,1.9225287723309938
2021-01-21,1.905465576500516
2021-01-22,1.8993402577984269
2021-01-25,1.8948082226100917
2021-01-26,1.8349548578873127
2021-01-27,1.7581269138219855
2021-01-28,1.781233769181553
2021-01-29,1.7399648994788177
2021-02-01,1.7448472873081764
2021-02-02,1.762032740043268
2021-02-03,1.7390956954332366
2021-02-04,1.7826713742962021
2021-02-05,1.7765631053781443
2021-02-08,1.7896472292624734
2021-02-09,1.7974946745224054
2021-02-10,1.8303557437153364
2021-02-11,1.8833438441532837
2021-02-12,1.922968509678249
2021-02-16,1.9324392422755765
2021-02-17,1.8922026937608312
2021-02-18,1.8868693332046678
2021-02-19,1.9056128885680153
2021-02-22,1.8327511312493927
2021-02-23,1.8263645816418794
2021-02-24,1.8263645816418794
2021-02-25,1.8263645816418794
2021-02-26,1.8263645816418794
2021-03-01,1.8314587268561269
2021-03-02,1.7958365584224012
2021-03-03,1.7785122895485717
2021-03-04,1.731157804010039
2021-03-05,1.7251231896659631
2021-03-08,1.680760297475656
2021-03-09,1.7341072225220864
2021-03-10,1.7092771822355222
2021-03-11,1.7455113425480475
2021-03-12,1.726924656293015
2021-03-15,1.7344392672053957
2021-03-16,1.760843049835225
2021-03-17,1.78241086984275
2021-03-18,1.7368686365049713
2021-03-19,1.7424461850098232
2021-03-22,1.7632861342707002
2021-03-23,1.7233753120604898
2021-03-24,1.741421825174465
2021-03-25,1.7361454204931204
2021-03-26,1.7702502442024808
2021-03-29,1.7657999148014543
2021-03-30,1.759754936744112
2021-03-31,1.7890766284392814
2021-04-01,1.8269371268165062
2021-04-05,1.860209301443411
2021-04-06,1.8332843805745838
2021-04-07,1.8412633903206679
2021-04-08,1.8530906597055066
2021-04-09,1.8680825113985993
2021-04-12,1.8215472579450507
2021-04-13,1.8189288836149302
2021-04-14,1.8047354602711123
2021-04-15,1.816172894793937
2021-04-16,1.8124522174105075
2021-04-19,1.7963287721846903
2021-04-20,1.793762027105601
2021-04-21,1.7641063416331568
2021-04-22,1.7498013429772745
2021-04-23,1.7498013429772745
2021-04-26,1.765324123896681
2021-04-27,1.7573455505049598
2021-04-28,1.7577549007702646
2021-04-29,1.7501840044083705
2021-04-30,1.734590862838663
2021-05-03,1.7380741746684154
2021-05-04,1.692533693513965
2021-05-05,1.6920277212012584
2021-05-06,1.7054716662950147
2021-05-07,1.7281609752709708
2021-05-10,1.6542832823582474
2021-05-11,1.656262382118041
2021-05-12,1.6285667163116022
2021-05-13,1.6285667163116022
2021-05-14,1.6285667163116022
2021-05-17,1.629281873483009
2021-05-18,1.6182599015793606
2021-05-19,1.620373164826901
2021-05-20,1.629667101748845
2021-05-21,1.6271694278051279
2021-05-24,1.6417143160134646
2021-05-25,1.645790623134077
2021-05-26,1.6436278902114667
2021-05-27,1.6515979895633564
2021-05-28,1.6461356557185514
2021-06-01,1.6488915366088102
2021-06-02,1.6471327267813125
2021-06-03,1.6409852700959222
2021-06-04,1.6486639128263862
2021-06-07,1.6455584833305241
2021-06-08,1.643036746827609
2021-06-09,1.636537379698973
2021-06-10,1.6394070267673417
2021-06-11,1.6378487756203257
2021-06-14,1.650162578918029
2021-06-15,1.639601166662597
2021-06-16,1.6332338505170239
2021-06-17,1.6790414661493245
2021-06-18,1.6693002642450612
2021-06-21,1.6630375192013456
2021-06-22,1.6928151977225676
2021-06-23,1.7026424352138023
2021-06-24,1.7127892762133754
2021-06-25,1.7024542174334811
2021-06-28,1.7646364903364335
2021-06-29,1.7616779802543736
2021-06-30,1.7551405188407516
2021-07-01,1.7734007683236876
2021-07-02,1.7863863938870934
2021-07-06,1.793571276815268
2021-07-07,1.7756462587809099
2021-07-08,1.7479011059502865
2021-07-09,1.7608441092588234
2021-07-12,1.7855536817571624
2021-07-13,1.7721527232425416
2021-07-14,1.7476695871553338
2021-07-15,1.733433117101316
2021-07-16,1.733433117101316
2021-07-19,1.7328777085559144
2021-07-20,1.7461694713319345
2021-07-21,1.7538315040999506
2021-07-22,1.7680015802036746
2021-07-23,1.7757615265386497
2021-07-26,1.7728807487918046
2021-07-27,1.765509257236808
2021-07-28,1.7675722697104552
2021-07-29,1.7702267350266738
2021-07-30,1.7740509266094466
2021-08-02,1.7698433084336698
2021-08-03,1.7739817401013
2021-08-04,1.7822532436312286
2021-08-05,1.7885489173345626
2021-08-06,1.7848139262367917
2021-08-09,1.7840771780953404
2021-08-10,1.7742690189030565
2021-08-11,1.7791778259497497
2021-08-12,1.7892337846642483
2021-08-13,1.7946805436765325
2021-08-16,1.7963260438494066
2021-08-17,1.7887875577267298
2021-08-18,1.78036129943028
2021-08-19,1.797277866481571
2021-08-20,1.8058532631050606
2021-08-23,1.8189439649063757
2021-08-24,1.8205464546875065
2021-08-25,1.8232680643097943
2021-08-26,1.820097432416697
2021-08-27,1.8245047129939926
2021-08-30,1.8367403917018812
2021-08-31,1.8429684886869444
2021-09-01,1.8308803911700313
2021-09-02,1.838865713858342
2021-09-03,1.8467961771637047
2021-09-07,1.8383462944651143
2021-09-08,1.854536135395501
2021-09-09,1.8623802397252813
2021-09-10,1.835171390174891
2021-09-13,1.8166699011176881
2021-09-14,1.836120662694821
2021-09-15,1.8427837647274927
2021-09-16,1.8766375113199008
2021-09-17,1.869839875854286
2021-09-20,1.8613655690539315
2021-09-21,1.8818428633293929
2021-09-22,1.924719586226351
2021-09-23,1.9198694840429094
2021-09-24,1.9130316062410215
2021-09-27,1.8538602518874154
2021-09-28,1.815262749598545
2021-09-29,1.8105148145845713
2021-09-30,1.822683711956714
2021-10-01,1.8254876011543306
2021-10-04,1.7848838540389642
2021-10-05,1.8000025792558147
2021-10-06,1.8044845400524756
2021-10-07,1.8006654264898274
2021-10-08,1.795047190550243
2021-10-11,1.807229040396202
2021-10-12,1.8236266639330827
2021-10-13,1.8554543590364045
2021-10-14,1.8460951005035242
2021-10-15,1.8540609172912215
2021-10-18,1.8700002274851917
2021-10-19,1.8692032675522368
2021-10-20,1.871556929762351
2021-10-21,1.8745240277512765
2021-10-22,1.8756428867364225
2021-10-25,1.8672999329970132
2021-10-26,1.8643198444799602
2021-10-27,1.8486609036518953
2021-10-28,1.8660333394938726
2021-10-29,1.8948639629113175
2021-11-01,1.8883150872565646
2021-11-02,1.887441570748775
2021-11-03,1.8722017167749172
2021-11-04,1.8806646784479688
2021-11-05,1.9321325161308183
2021-11-08,1.9646122511900963
2021-11-09,1.8327327912520066
2021-11-10,1.8207870605560699
2021-11-11,1.828693268548964
2021-11-12,1.8353348480957035
2021-11-15,1.822088127063501
2021-11-16,1.8338887518643576
2021-11-17,1.795173386134194
2021-11-18,1.873522218040471
2021-11-19,1.922380106772108
2021-11-22,1.900151355256639
2021-11-23,1.8875146638356644
2021-11-24,1.930648646954318
2021-11-26,1.8803986455203376
2021-11-29,1.9531124477484159
2021-11-30,1.9281795851399954
2021-12-01,1.8738453271490627
2021-12-02,1.9011485885718415
2021-12-03,1.8386164613517848
2021-12-06,1.8406916811902203
2021-12-07,1.8741042704409039
2021-12-08,1.8728954315234334
2021-12-09,1.8659708557855272
2021-12-10,1.8604204784019762
2021-12-13,1.828938633355596
2021-12-14,1.8118784312769551
2021-12-15,1.8654569402150145
2021-12-16,1.8110124154938398
2021-12-17,1.8264837869905044
2021-12-20,1.8491695749616475
2021-12-21,1.868694544223897
2021-12-22,1.8928483064207309
2021-12-23,1.9036978600816645
2021-12-27,1.9348687096582233
2021-12-28,1.9116062462256103
2021-12-29,1.9199579444872559
2021-12-30,1.9027963366831946
2021-12-31,1.9035579693530897
2022-01-03,1.9111012826287967
2022-01-04,1.9165277298033179
2022-01-05,1.851955844331335
2022-01-06,1.8432499307120502
2022-01-07,1.8253881824731484
2022-01-10,1.8257464572738888
2022-01-11,1.8317306444101207
2022-01-12,1.8361158742701904
2022-01-13,1.8394856980842427
2022-01-14,1.863222927178065
2022-01-18,1.8353640015873247
2022-01-19,1.8209983942371057
2022-01-20,1.8062200772984525
2022-01-21,1.8051350502779513
2022-01-24,1.7990957412752295
2022-01-25,1.7990957412752295
2022-01-26,1.7990957412752295
2022-01-27,1.7990957412752295
2022-01-28,1.7990957412752295
2022-01-31,1.7990957412752295
2022-02-01,1.7990957412752295
2022-02-02,1.7990957412752295
2022-02-03,1.7990957412752295
2022-02-04,1.7990957412752295
2022-02-07,1.7990957412752295
2022-02-08,1.7990957412752295
2022-02-09,1.7990957412752295
2022-02-10,1.7990957412752295
2022-02-11,1.7990957412752295
2022-02-14,1.7990957412752295
2022-02-15,1.7990957412752295
2022-02-16,1.7990957412752295
2022-02-17,1.7990957412752295
2022-02-18,1.7990957412752295
2022-02-22,1.7990957412752295
2022-02-23,1.7990957412752295
2022-02-24,1.7990957412752295
2022-02-25,1.7990957412752295
2022-02-28,1.7990957412752295
2022-03-01,1.7990957412752295
2022-03-02,1.7990957412752295
2022-03-03,1.7990957412752295
2022-03-04,1.7990957412752295
2022-03-07,1.7990957412752295
2022-03-08,1.7990957412752295
2022-03-09,1.7990957412752295
2022-03-10,1.7990957412752295
2022-03-11,1.7990957412752295
2022-03-14,1.7990957412752295
2022-03-15,1.7990957412752295
2022-03-16,1.7990957412752295
2022-03-17,1.7990957412752295
2022-03-18,1.7990957412752295
2022-03-21,1.7990957412752295
2022-03-22,1.7990957412752295
2022-03-23,1.7990957412752295
2022-03-24,1.7990957412752295
2022-03-25,1.7990957412752295
2022-03-28,1.7990957412752295
2022-03-29,1.7990957412752295
2022-03-30,1.7990957412752295
2022-03-31,1.7990957412752295
2022-04-01,1.7990957412752295
2022-04-04,1.7990957412752295
2022-04-05,1.7990957412752295
2022-04-06,1.7990957412752295
2022-04-07,1.7990957412752295
2022-04-08,1.7990957412752295
2022-04-11,1.7990957412752295
2022-04-12,1.7990957412752295
2022-04-13,1.7990957412752295
2022-04-14,1.7990957412752295
2022-04-18,1.7990957412752295
2022-04-19,1.7990957412752295
2022-04-20,1.7990957412752295
2022-04-21,1.7990957412752295
2022-04-22,1.7990957412752295
2022-04-25,1.7990957412752295
2022-04-26,1.7990957412752295
2022-04-27,1.7990957412752295
2022-04-28,1.7990957412752295
2022-04-29,1.7990957412752295
2022-05-02,1.7990957412752295
2022-05-03,1.7990957412752295
2022-05-04,1.7990957412752295
2022-05-05,1.7990957412752295
2022-05-06,1.7990957412752295
2022-05-09,1.7990957412752295
2022-05-10,1.7990957412752295
2022-05-11,1.7990957412752295
2022-05-12,1.7990957412752295
2022-05-13,1.7990957412752295
2022-05-16,1.7990957412752295
2022-05-17,1.7990957412752295
2022-05-18,1.7990957412752295
2022-05-19,1.7990957412752295
2022-05-20,1.7990957412752295
2022-05-23,1.7990957412752295
2022-05-24,1.7990957412752295
2022-05-25,1.7990957412752295
2022-05-26,1.7990957412752295
2022-05-27,1.7990957412752295
2022-05-31,1.7990957412752295
2022-06-01,1.7990957412752295
2022-06-02,1.7990957412752295
2022-06-03,1.7990957412752295
2022-06-06,1.7990957412752295
2022-06-07,1.7990957412752295
2022-06-08,1.7990957412752295
2022-06-09,1.7990957412752295
2022-06-10,1.7990957412752295
2022-06-13,1.7990957412752295
2022-06-14,1.7990957412752295
2022-06-15,1.7990957412752295
2022-06-16,1.7990957412752295
2022-06-17,1.7990957412752295
2022-06-21,1.7990957412752295
2022-06-22,1.7990957412752295
2022-06-23,1.7990957412752295
2022-06-24,1.7990957412752295
2022-06-27,1.7990957412752295
2022-06-28,1.7990957412752295
2022-06-29,1.7990957412752295
2022-06-30,1.7990957412752295
2022-07-01,1.7990957412752295
2022-07-05,1.7990957412752295
2022-07-06,1.7990957412752295
2022-07-07,1.7990957412752295
2022-07-08,1.7990957412752295
2022-07-11,1.7990957412752295
2022-07-12,1.7990957412752295
2022-07-13,1.7990957412752295
2022-07-14,1.7990957412752295
2022-07-15,1.7990957412752295
2022-07-18,1.7990957412752295
2022-07-19,1.7990957412752295
2022-07-20,1.7990957412752295
2022-07-21,1.7990957412752295
2022-07-22,1.7990957412752295
2022-07-25,1.7990957412752295
2022-07-26,1.7990957412752295
2022-07-27,1.7990957412752295
2022-07-28,1.7990957412752295
2022-07-29,1.7990957412752295
2022-08-01,1.7990957412752295
2022-08-02,1.7990957412752295
2022-08-03,1.7990957412752295
2022-08-04,1.7990957412752295
2022-08-05,1.7990957412752295
2022-08-08,1.7990957412752295
2022-08-09,1.7990957412752295
2022-08-10,1.7990957412752295
2022-08-11,1.7990957412752295
2022-08-12,1.7990957412752295
2022-08-15,1.7990957412752295
2022-08-16,1.7990957412752295
2022-08-17,1.7990957412752295
2022-08-18,1.7990957412752295
2022-08-19,1.7990957412752295
2022-08-22,1.7990957412752295
2022-08-23,1.7990957412752295
2022-08-24,1.7990957412752295
2022-08-25,1.7990957412752295
2022-08-26,1.7990957412752295
2022-08-29,1.7990957412752295
2022-08-30,1.7990957412752295
2022-08-31,1.7990957412752295
2022-09-01,1.7990957412752295
2022-09-02,1.7990957412752295
2022-09-06,1.7990957412752295
2022-09-07,1.7990957412752295
2022-09-08,1.7990957412752295
2022-09-09,1.7990957412752295
2022-09-12,1.7990957412752295
2022-09-13,1.7990957412752295
2022-09-14,1.7990957412752295
2022-09-15,1.7990957412752295
2022-09-16,1.7990957412752295
2022-09-19,1.7990957412752295
2022-09-20,1.7990957412752295
2022-09-21,1.7990957412752295
2022-09-22,1.7990957412752295
2022-09-23,1.7990957412752295
2022-09-26,1.7990957412752295
2022-09-27,1.7990957412752295
2022-09-28,1.7990957412752295
2022-09-29,1.7990957412752295
2022-09-30,1.7990957412752295
2022-10-03,1.7990957412752295
2022-10-04,1.7990957412752295
2022-10-05,1.7990957412752295
2022-10-06,1.7990957412752295
2022-10-07,1.7990957412752295
2022-10-10,1.7990957412752295
2022-10-11,1.7990957412752295
2022-10-12,1.7990957412752295
2022-10-13,1.7990957412752295
2022-10-14,1.7990957412752295
2022-10-17,1.7990957412752295
2022-10-18,1.7990957412752295
2022-10-19,1.7990957412752295
2022-10-20,1.7990957412752295
2022-10-21,1.7990957412752295
2022-10-24,1.7990957412752295
2022-10-25,1.7990957412752295
2022-10-26,1.7990957412752295
2022-10-27,1.7990957412752295
2022-10-28,1.7990957412752295
2022-10-31,1.7990957412752295
2022-11-01,1.7990957412752295
2022-11-02,1.7990957412752295
2022-11-03,1.7990957412752295
2022-11-04,1.7990957412752295
2022-11-07,1.7990957412752295
2022-11-08,1.7990957412752295
2022-11-09,1.7990957412752295
2022-11-10,1.7990957412752295
2022-11-11,1.7990957412752295
2022-11-14,1.7990957412752295
2022-11-15,1.7990957412752295
2022-11-16,1.7990957412752295
2022-11-17,1.7990957412752295
2022-11-18,1.7990957412752295
2022-11-21,1.7990957412752295
2022-11-22,1.7990957412752295
2022-11-23,1.7990957412752295
2022-11-25,1.7990957412752295
2022-11-28,1.7990957412752295
2022-11-29,1.7990957412752295
2022-11-30,1.7990957412752295
2022-12-01,1.7990957412752295
2022-12-02,1.7990957412752295
2022-12-05,1.7990957412752295
2022-12-06,1.7990957412752295
2022-12-07,1.7990957412752295
2022-12-08,1.7990957412752295
2022-12-09,1.7990957412752295
2022-12-12,1.7990957412752295
2022-12-13,1.7990957412752295
2022-12-14,1.7990957412752295
2022-12-15,1.7990957412752295
2022-12-16,1.7990957412752295
2022-12-19,1.7990957412752295
2022-12-20,1.7990957412752295
2022-12-21,1.7990957412752295
2022-12-22,1.7990957412752295
2022-12-23,1.7990957412752295
2022-12-27,1.7990957412752295
2022-12-28,1.7990957412752295
2022-12-29,1.7990957412752295
2022-12-30,1.7990957412752295
2023-01-03,1.7990957412752295
2023-01-04,1.7990957412752295
2023-01-05,1.7990957412752295
2023-01-06,1.7990957412752295
2023-01-09,1.7990957412752295
2023-01-10,1.7990957412752295
2023-01-11,1.7990957412752295
2023-01-12,1.7990957412752295
2023-01-13,1.7990957412752295
2023-01-17,1.7990957412752295
2023-01-18,1.7990957412752295
2023-01-19,1.7990957412752295
2023-01-20,1.7990957412752295
2023-01-23,1.7990957412752295
2023-01-24,1.7990957412752295
2023-01-25,1.7990957412752295
2023-01-26,1.7990957412752295
2023-01-27,1.7990957412752295
2023-01-30,1.7990957412752295
2023-01-31,1.7990957412752295
2023-02-01,1.7990957412752295
2023-02-02,1.7990957412752295
2023-02-03,1.7990957412752295
2023-02-06,1.8090646951839422
2023-02-07,1.8827446947558921
2023-02-08,1.8446317263283971
2023-02-09,1.8237665240125884
2023-02-10,1.759237559149388
2023-02-13,1.8073123635602202
2023-02-14,1.858700839550025
2023-02-15,1.8385628855604488
2023-02-16,1.7828555449974965
2023-02-17,1.7584310139885648
2023-02-21,1.722881749621536
2023-02-22,1.7097161594807537
2023-02-23,1.7090290985000731
2023-02-24,1.7090290985000731
2023-02-27,1.7001617658352328
2023-02-28,1.7084405963725913
2023-03-01,1.6953120652123244
2023-03-02,1.709190395194093
2023-03-03,1.7462351397048677
2023-03-06,1.7393001893621558
2023-03-07,1.7336007485038294
2023-03-08,1.7508659775845588
2023-03-09,1.7292627895341048
2023-03-10,1.7153403947308592
2023-03-13,1.709157375396178
2023-03-14,1.7289621508601003
2023-03-15,1.7319410371282014
2023-03-16,1.7556455025489612
2023-03-17,1.758967385347747
2023-03-20,1.7591612228578142
2023-03-21,1.7838128959423347
2023-03-22,1.7782679125291287
2023-03-23,1.811105507978692
2023-03-24,1.8113243266777759
2023-03-27,1.7928163940258321
2023-03-28,1.7810715371704378
2023-03-29,1.8121041363207873
2023-03-30,1.8303285477011308
2023-03-31,1.8555887095980643
2023-04-03,1.8639843104795841
2023-04-04,1.8620437636634484
2023-04-05,1.8373765775105646
2023-04-06,1.8606415525232323
2023-04-10,1.864451429950099
2023-04-11,1.85306589042067
2023-04-12,1.841561538134524
2023-04-13,1.869089601109947
2023-04-14,1.879461145383365
2023-04-17,1.8722256193087254
2023-04-18,1.8799380110033566
2023-04-19,1.8750110674771832
2023-04-20,1.848440108882547
2023-04-21,1.835048399986734
2023-04-24,1.8317494515942012
2023-04-25,1.8058839117063172
2023-04-26,1.8098515915833246
2023-04-27,1.8723916607998166
2023-04-28,1.8761664252049823
2023-05-01,1.8793699878858825
2023-05-02,1.8648817524556294
2023-05-03,2.049088184100696
2023-05-04,2.0415601269901704
2023-05-05,2.039973068232424
2023-05-08,2.086990017096731
2023-05-09,2.0791025770894382
2023-05-10,2.066575794714274
2023-05-11,2.0679236244781585
2023-05-12,2.0377178412243118
2023-05-15,2.052682318108322
2023-05-16,2.028456075384606
2023-05-17,2.04690931849241
2023-05-18,2.0577483720825165
2023-05-19,2.0444058135774763
2023-05-22,2.0809079677288227
2023-05-23,2.0158454090871087
2023-05-24,2.0317250826211692
2023-05-25,2.0183550270393993
2023-05-26,2.0453546756603256
2023-05-30,2.0553202363340173
2023-05-31,2.0009459430973227
2023-06-01,2.0330013790006967
2023-06-02,1.9918325623732591
2023-06-05,2.059662977494403
2023-06-06,2.1177846105209692
2023-06-07,2.123201150822874
2023-06-08,2.18926170254103
2023-06-09,2.222405396240153
2023-06-12,2.224208491412496
2023-06-13,2.1358476002032427
2023-06-14,2.109656143454596
2023-06-15,2.1394278882252786
2023-06-16,2.1242803735888316
2023-06-20,2.110667091975423
2023-06-21,2.015507984113566
2023-06-22,2.0201446419811244
2023-06-23,2.0246338279483758
2023-06-26,1.9753069297025747
2023-06-27,2.0131301543873734
2023-06-28,2.030760441378641
2023-06-29,2.040938813267037
2023-06-30,2.0805782130738586
2023-07-03,2.0830830246749588
2023-07-05,2.076846025321245
2023-07-06,2.0452443696801845
2023-07-07,2.021360291646083
2023-07-10,1.9905317119601724
2023-07-11,1.9932084297985657
2023-07-12,2.0110172757226272
2023-07-13,2.0357023757418085
2023-07-14,2.029658925742632
2023-07-17,2.0515174031340004
2023-07-18,2.1195475785680533
2023-07-19,2.0643686068276987
2023-07-20,1.9978150809290796
2023-07-21,1.9872672325671816
2023-07-24,1.92444758787353
2023-07-25,1.9547108993006674
2023-07-26,1.9913196769421497
2023-07-27,1.9759169081575525
2023-07-28,2.1183340529251105
2023-07-31,2.1588997592908976
2023-08-01,2.159910257282849
2023-08-02,2.150815968088071
2023-08-03,2.1316169559508262
2023-08-04,2.1575524928792236
2023-08-07,2.139995817978041
2023-08-08,2.1063707663249627
2023-08-09,2.0270641883219955
2023-08-10,2.2564648147727255
2023-08-11,2.2564648147727255
2023-08-14,2.2598649693586528
2023-08-15,2.251705692520347
2023-08-16,2.2506311576551687
2023-08-17,2.2345666918770015
2023-08-18,2.226828386176858
2023-08-21,2.2258285716719257
2023-08-22,2.2261665954874923
2023-08-23,2.233613023228308
2023-08-24,2.218394658322182
2023-08-25,2.2255963512732384
2023-08-28,2.2561237817641993
2023-08-29,2.272053527711283
2023-08-30,2.3228078769658707
2023-08-31,2.3288396046529836
2023-09-01,2.3305368211735606
2023-09-05,2.305807376506001
2023-09-06,2.293084204897739
2023-09-07,2.3008266732772533
2023-09-08,2.289029813651822
2023-09-11,2.2942785526841925
2023-09-12,2.274203175320796
2023-09-13,2.2456694433034876
2023-09-14,2.246744483959392
2023-09-15,2.2408786575547666
2023-09-18,2.248771262271824
2023-09-19,2.1957906402177074
2023-09-20,2.1877125279970167
2023-09-21,2.17347771056975
2023-09-22,2.17347771056975
2023-09-25,2.1654513246373472
2023-09-26,2.1717584089987225
2023-09-27,2.180228395103021
2023-09-28,2.191382603004233
2023-09-29,2.194347593594737
2023-10-02,2.1966209749767964
2023-10-03,2.160651676600387
2023-10-04,2.1764284717294897
2023-10-05,2.1798590047209707
2023-10-06,2.222973955962
2023-10-09,2.248457218375344
2023-10-10,2.2546814292270345
2023-10-11,2.2944305132383502
2023-10-12,2.295140117873336
2023-10-13,2.2870554912826195
2023-10-16,2.2992463777477625
2023-10-17,2.2924713882235452
2023-10-18,2.2929467343557035
2023-10-19,2.275919638044109
2023-10-20,2.245282981127403
2023-10-23,2.2434396240972094
2023-10-24,2.261596593063422
2023-10-25,2.229797170586173
2023-10-26,2.212879073150887
2023-10-27,2.2144383921960547
2023-10-30,2.2255166413669065
2023-10-31,2.2337544815071286
2023-11-01,2.2438183598500174
2023-11-02,2.2602620926351307
2023-11-03,2.2746762715251174
2023-11-06,2.2707705698753653
2023-11-07,2.2912350738028335
2023-11-08,2.2912882490736695
2023-11-09,2.2801791011506714
2023-11-10,2.3057040505828272
2023-11-13,2.325673972979203
2023-11-14,2.3479544810471897
2023-11-15,2.3435258655379436
2023-11-16,2.3197169738962526
2023-11-17,2.328721495392206
2023-11-20,2.3697196563461334
2023-11-21,2.2867689479030853
2023-11-22,2.2825705455185257
2023-11-24,2.258259950561842
2023-11-27,2.249601280924665
2023-11-28,2.2924486972393026
2023-11-29,2.340681735412873
2023-11-30,2.3525374156211565
2023-12-01,2.364957775093856
2023-12-04,2.290149836093468
2023-12-05,2.2890556389083265
2023-12-06,2.2516541759488207
2023-12-07,2.2585177626754223
2023-12-08,2.2468795663146164
2023-12-11,2.275769075268749
2023-12-12,2.2823309675658683
2023-12-13,2.323927521420212
2023-12-14,2.3608869208661534
2023-12-15,2.4142779144316115
2023-12-18,2.419656259921596
2023-12-19,2.404348871403163
2023-12-20,2.366422647031185
2023-12-21,2.400405541735604
2023-12-22,2.392741446884582
2023-12-26,2.4136749784191442
2023-12-27,2.411546348142781
2023-12-28,2.40289663138881
2023-12-29,2.3802759948385095
2024-01-02,2.28238202280185
2024-01-03,2.2587055924216
2024-01-04,2.2587055924216
2024-01-05,2.2587055924216
2024-01-08,2.347587653244566
2024-01-09,2.42836655106408
2024-01-10,2.459650630194729
2024-01-11,2.466585328950377
2024-01-12,2.4495925173407556
2024-01-16,2.560775294132722
2024-01-17,2.527358046982787
2024-01-18,2.5485842774890037
2024-01-19,2.581895582263309
2024-01-22,2.5619250544618044
2024-01-23,2.6149558224802254
2024-01-24,2.664361622974771
2024-01-25,2.649940729494441
2024-01-26,2.6459320091414997
2024-01-29,2.6993364464966723
2024-01-30,2.6972472583676446
2024-01-31,2.66506017221392
2024-02-01,2.685609795694247
2024-02-02,2.7384939586685926
2024-02-05,2.7019187116254537
2024-02-06,2.6534354877492863
2024-02-07,2.7465923169237754
2024-02-08,2.7585860045723893
2024-02-09,2.8100313927872618
2024-02-12,2.769555048934099
2024-02-13,2.7175025312454073
2024-02-14,2.770239353267675
2024-02-15,2.755950315397956
2024-02-16,2.734664099545456
2024-02-20,2.674414574790459
2024-02-21,2.6641028435211136
2024-02-22,2.79351427861447
2024-02-23,2.7541826735258867
2024-02-26,2.73985753065139
2024-02-27,2.747717878985916
2024-02-28,2.7189209074645495
2024-02-29,2.861882741379718
2024-03-01,2.9913990276075655
2024-03-04,3.0628517527017243
2024-03-05,3.073865115890266
2024-03-06,3.161937005336994
2024-03-07,3.236456885720589
2024-03-08,3.2103116291218496
2024-03-11,3.1395109540401234
2024-03-12,3.1671155916183804
2024-03-13,3.217723996342262
2024-03-14,3.220279937968579
2024-03-15,3.218746411993958
2024-03-18,3.312729483678261
2024-03-19,3.316440172136012
2024-03-20,3.407348974416691
2024-03-21,3.461754445039433
2024-03-22,3.495056335312661
2024-03-25,3.5427352801065832
2024-03-26,3.460791450504297
2024-03-27,3.318872559867601
2024-03-28,3.320755124519653
2024-04-01,3.3654985559998707
2024-04-02,3.304553247498861
2024-04-03,3.305189261664001
2024-04-04,3.1562367087672287
2024-04-05,3.1771978903935505
2024-04-08,3.1295790226608116
2024-04-09,3.042105497830509
2024-04-10,3.042105497830509
2024-04-11,3.042105497830509
2024-04-12,3.042105497830509
2024-04-15,2.9984324772233397
2024-04-16,3.0099980860422226
2024-04-17,2.962006084158937
2024-04-18,2.914068994014319
2024-04-19,2.8840394660878887
2024-04-22,2.903763061341839
2024-04-23,2.9470020929433685
2024-04-24,2.93727303520293
2024-04-25,2.917676383703998
2024-04-26,3.0377109380539906
2024-04-29,3.002413293137961
2024-04-30,2.9645263435769103
2024-05-01,2.9560351098607276
2024-05-02,2.9839640802344802
2024-05-03,3.0105630513203967
2024-05-06,3.0751965735021445
2024-05-07,3.0508781574582082
2024-05-08,3.016869276986757
2024-05-09,3.0981249921256095
2024-05-10,3.1350184296759824
2024-05-13,3.1431998976098967
2024-05-14,3.1293802280890786
2024-05-15,3.190992040058102
2024-05-16,3.17792638229409
2024-05-17,3.1386187388804476
2024-05-20,3.198742039406837
2024-05-21,3.203140404665822
2024-05-22,3.1548586780004486
2024-05-23,3.2924124823869523
2024-05-24,3.337485206985608
2024-05-28,3.433523306540959
2024-05-29,3.4149478493789944
2024-05-30,3.323355972254802
2024-05-31,3.2991799695555306
2024-06-03,3.3122487130431377
2024-06-04,3.312057243172367
2024-06-05,3.4395321791312865
2024-06-06,3.4098571789149563
2024-06-07,3.3820414946496955
2024-06-10,3.364747098093651
2024-06-11,3.2348798561900214
2024-06-12,3.297168615352794
2024-06-13,3.361199713554079
2024-06-14,3.394159080430434
2024-06-17,3.4048183192427732
2024-06-18,3.449952136860208
2024-06-20,3.3495480487650933
2024-06-21,3.287145429740691
2024-06-24,3.203727714539816
2024-06-25,3.3098496999995173
2024-06-26,3.313972046916599
2024-06-27,3.2819228830907825
2024-06-28,3.275938572432349
2024-07-01,3.315164571877254
2024-07-02,3.263393954275548
2024-07-03,3.3470265042459046
2024-07-05,3.325041929616876
2024-07-08,3.3609247372529825
2024-07-09,3.382741879568424
2024-07-10,3.381238405624153
2024-07-11,3.2643274404915363
2024-07-12,3.2925693034634618
2024-07-15,3.3075741002348007
2024-07-16,3.244647875771183
2024-07-17,3.1709588135285283
2024-07-18,3.1709588135285283
2024-07-19,3.1709588135285283
2024-07-22,3.181776620117104
2024-07-23,3.1747146675811866
2024-07-24,3.011983404500665
2024-07-25,2.9933500605488437
2024-07-26,2.9933500605488437
2024-07-29,2.9767998779103735
2024-07-30,2.959246002648989
2024-07-31,2.9715511664580636
2024-08-01,2.9564115315399713
2024-08-02,2.903347926699613
2024-08-05,2.8643679288672055
2024-08-06,2.866686647011155
2024-08-07,2.837157673388435
2024-08-08,2.8521544612572556
2024-08-09,2.8339508635681256
2024-08-12,2.8079590930602905
2024-08-13,2.84095042897706
2024-08-14,2.8567452391458485
2024-08-15,2.863783846065327
2024-08-16,2.878642770491007
2024-08-19,2.8947982107073815
2024-08-20,2.893412300862933
2024-08-21,2.902148702021356
2024-08-22,2.8948912475396353
2024-08-23,2.8993467687589067
2024-08-26,2.8798304202486698
2024-08-27,2.8799735241814135
2024-08-28,2.883445918901881
2024-08-29,2.9068287000264244
2024-08-30,2.913825685269938
2024-09-03,2.897711228340273
2024-09-04,2.8672294414263657
2024-09-05,2.8638339422862553
2024-09-06,2.863362370422804
2024-09-09,2.876934135989863
2024-09-10,2.9107562198028427
2024-09-11,2.9191847276134286
2024-09-12,2.936306578444135
2024-09-13,2.9274385877169427
2024-09-16,2.930669502025227
2024-09-17,2.921407085911415
2024-09-18,2.912492909033017
2024-09-19,2.922067292211688
2024-09-20,2.908772887790245
2024-09-23,2.911852394305904
2024-09-24,2.911060697516296
2024-09-25,2.891822795528561
2024-09-26,2.8781878484217795
2024-09-27,2.8836141807265694
2024-09-30,2.920126033411208
2024-10-01,2.922207031664506
2024-10-02,2.937839269539009
2024-10-03,2.9763317042894357
2024-10-04,3.0301201846873775
2024-10-07,3.031870980824338
2024-10-08,3.079489844688463
2024-10-09,3.087101621050146
2024-10-10,3.0893649981015043
2024-10-11,3.116417592892793
2024-10-14,3.098176387722747
2024-10-15,3.088684369764759
2024-10-16,3.109279864447669
2024-10-17,3.0941999852492614
2024-10-18,3.1131715109177565
2024-10-21,3.184296632723113
2024-10-22,3.202099152030627
2024-10-23,3.193245443296948
2024-10-24,3.2080015235623787
2024-10-25,3.21009603558659
2024-10-28,3.2049589587577367
2024-10-29,3.197059121875012
2024-10-30,3.154847974392419
2024-10-31,3.080360724063656
2024-11-01,3.086929641374785
2024-11-04,3.0773354621334947
2024-11-05,3.109906838892562
2024-11-06,3.1399761005894904
2024-11-07,3.5074003197163015
2024-11-08,3.5074003197163015
2024-11-11,3.5292581577886386
2024-11-12,3.4089552361890076
2024-11-13,3.4426066266103312
2024-11-14,3.3017559390367675
2024-11-15,3.542256173152661
2024-11-18,3.5019831305699194
2024-11-19,3.5889101787361097
2024-11-20,3.5437248768501624
2024-11-21,3.509457386181439
2024-11-22,3.662084931964829
2024-11-25,3.6000885483315157
2024-11-26,3.6300538594345806
2024-11-27,3.6120524423316844
2024-11-29,3.704227543639436
2024-12-02,3.7445192845725583
2024-12-03,3.8490839398140415
2024-12-04,3.8496794568735737
2024-12-05,3.9671312989498873
2024-12-06,4.197407691693295
2024-12-09,4.170464180287542
2024-12-10,4.227182084912318
2024-12-11,4.34760654096402
2024-12-12,4.31382903444333
2024-12-13,4.405641317382898
2024-12-16,4.530141819381269
2024-12-17,4.489263535242224
2024-12-18,4.322113092324123
2024-12-19,4.360297615897808
2024-12-20,4.5101403337643236
2024-12-23,4.5370315750171875
2024-12-24,4.563283514806087
2024-12-26,4.589695108037481
2024-12-27,4.4278511447558
2024-12-30,4.377112664037231
2024-12-31,4.2567833694839035
2025-01-02,4.365590493513736
2025-01-03,4.554334559242321
2025-01-06,4.4741866533531365
2025-01-07,4.096103388351481
2025-01-08,4.096103388351481
2025-01-10,4.096103388351481
2025-01-13,4.149574906804369
2025-01-14,4.147285348119762
2025-01-15,4.169960932111429
2025-01-16,4.19097055812115
2025-01-17,4.293996568648905
2025-01-21,4.298395698122263
2025-01-22,4.3142633551028
2025-01-23,4.319102448512614
2025-01-24,4.321025112184887
2025-01-27,4.178589702663511
2025-01-28,4.178589702663511
2025-01-29,4.178589702663511
2025-01-30,4.178589702663511
2025-01-31,4.178589702663511
2025-02-03,4.260975021347004
2025-02-04,4.566697079862468
2025-02-05,4.499062521124519
2025-02-06,4.552033006065539
2025-02-07,4.537523593194788
2025-02-10,4.566432669312404
2025-02-11,4.507786923877131
2025-02-12,4.56802727689694
2025-02-13,4.938642434852485
2025-02-14,4.876412428972042
2025-02-18,5.173068877627127
2025-02-19,5.354992806899482
2025-02-20,5.33531543778556
2025-02-21,5.2483654754058975
2025-02-24,5.149074377521906
2025-02-25,5.042778726390011
2025-02-26,4.996226375553855
2025-02-27,4.996226375553855
2025-02-28,4.996226375553855
2025-03-03,5.0014039944414925
2025-03-04,4.951754689959558
2025-03-05,4.944143813404048
2025-03-06,4.950666751410807
2025-03-07,4.965561097598399
2025-03-10,4.961103725059269
2025-03-11,4.961103725059269
2025-03-12,4.961103725059269
2025-03-13,4.961103725059269
2025-03-14,4.961103725059269
2025-03-17,4.961103725059269
2025-03-18,4.961103725059269
2025-03-19,4.961103725059269
2025-03-20,4.961103725059269
2025-03-21,4.961103725059269
2025-03-24,4.961103725059269
2025-03-25,4.961103725059269
2025-03-26,4.961103725059269
2025-03-27,4.961103725059269
2025-03-28,4.961103725059269
2025-03-31,4.961103725059269
2025-04-01,4.961103725059269
2025-04-02,4.961103725059269
2025-04-03,4.961103725059269
2025-04-04,4.961103725059269
2025-04-07,4.961103725059269
2025-04-08,4.961103725059269
2025-04-09,4.961103725059269
2025-04-10,4.961103725059269
2025-04-11,4.961103725059269
2025-04-14,4.961103725059269
2025-04-15,4.961103725059269
2025-04-16,4.961103725059269
2025-04-17,4.961103725059269
2025-04-21,4.961103725059269
2025-04-22,4.961103725059269
2025-04-23,4.961103725059269
2025-04-24,4.961103725059269
2025-04-25,4.961103725059269
2025-04-28,4.961103725059269
2025-04-29,4.961103725059269
2025-04-30,4.961103725059269
2025-05-01,4.961103725059269
2025-05-02,4.961103725059269
2025-05-05,4.961103725059269
2025-05-06,4.961103725059269
2025-05-07,4.961103725059269
2025-05-08,4.961103725059269
2025-05-09,4.961103725059269
2025-05-12,4.961103725059269
2025-05-13,4.961103725059269
2025-05-14,4.961103725059269
2025-05-15,4.961103725059269
2025-05-16,4.961103725059269
2025-05-19,4.996916086398047
2025-05-20,4.983026030553448
2025-05-21,4.905307706975429
2025-05-22,4.94321176595265
2025-05-23,4.868902824928728
2025-05-27,4.916106015466813
2025-05-28,4.919168107306823
2025-05-29,4.885497352908618
2025-05-30,5.090804863167458
2025-06-02,5.125025544852944
2025-06-03,5.155999217567128
2025-06-04,5.0658803729370305
2025-06-05,4.872490000905453
2025-06-06,4.8878347802599125
2025-06-09,4.870894952540434
2025-06-10,4.885870659263764
2025-06-11,4.956023003745049
2025-06-12,4.915481379982321
2025-06-13,4.8653030269425255
2025-06-16,4.981275799406843
2025-06-17,4.857578997899536
2025-06-18,4.8495839131321326
2025-06-20,4.796677067667419
2025-06-23,4.903428434252254
2025-06-24,4.955603434603255
2025-06-25,4.9730816333378804
2025-06-26,5.012705068815513
2025-06-27,4.811952747418436
2025-06-30,4.72816831538504
2025-07-01,4.605961573621085
2025-07-02,4.562266031887733
2025-07-03,4.599421440079462
2025-07-07,4.576267971102668
2025-07-08,4.577557828641472
2025-07-09,4.618064870900719
2025-07-10,4.476248604211259
2025-07-11,4.402552220100434
2025-07-14,4.407074105040656
2025-07-15,4.601374281560492
2025-07-16,4.729550184121189
2025-07-17,4.807257174898769
2025-07-18,4.7243472445523
2025-07-21,4.705826117132368
2025-07-22,4.618981487251206
2025-07-23,4.714234654001663
2025-07-24,4.774719886307633
2025-07-25,4.861532269793299
2025-07-28,4.993341059226694
2025-07-29,5.071515348501573
2025-07-30,5.108234785086124
2025-07-31,5.091823744830673
2025-08-01,4.95748347681999
2025-08-04,4.991271841440348
2025-08-05,4.914867185573245
2025-08-06,4.42973180837374
2025-08-07,4.42973180837374
2025-08-08,4.42973180837374
2025-08-11,4.41108717447201
2025-08-12,4.472310719103573
2025-08-13,4.607269217177127
2025-08-14,4.476564217334049
2025-08-15,4.390619113524239
2025-08-18,4.396868743147769
2025-08-19,4.215243236280187
2025-08-20,4.168862580162454
2025-08-21,4.140492603763141
2025-08-22,4.273022674746881
2025-08-25,4.192497188390491
2025-08-26,4.23966192909999
2025-08-27,4.200169075828956
2025-08-28,4.219056096110311
2025-08-29,4.165683722492881
2025-09-02,4.209426505872008
2025-09-03,4.2002252569448935
2025-09-04,4.268520680309248
2025-09-05,4.2902569649306965
2025-09-08,4.280823184737137
2025-09-09,4.285886448404929
2025-09-10,4.289155577764802
2025-09-11,4.301370447064146
2025-09-12,4.282104408356359
2025-09-15,4.329401105149197
2025-09-16,4.302057968860356
2025-09-17,4.253564798871434
2025-09-18,4.285807446297029
2025-09-19,4.294856686732146
2025-09-22,4.31212619935919
2025-09-23,4.283009678314678
2025-09-24,4.2438432291919845
2025-09-25,4.230431659536112
2025-09-26,4.329808585643881
2025-09-29,4.468385824653945
2025-09-30,4.432123048833091
2025-10-01,4.530065793019043
2025-10-02,4.523322220231786
2025-10-03,4.494632897486146
2025-10-06,4.433327796204802
2025-10-07,4.4080224155812076
2025-10-08,4.548882985666696
2025-10-09,4.522969954394089
2025-10-10,4.31207322834608
2025-10-13,4.492634907055823
2025-10-14,4.28475224885714
2025-10-15,4.340968824947302
2025-10-16,4.462963397211055
2025-10-17,4.46123565651852
2025-10-20,4.54864569469108
2025-10-21,4.474249485857671
2025-10-22,4.359990169879574
2025-10-23,4.497786209747044
2025-10-24,4.801088398523417
2025-10-27,4.874326472955657
2025-10-28,4.880225766125394
2025-10-29,4.991522506093869
2025-10-30,4.875865177202429
2025-10-31,4.884629348785949
2025-11-03,5.042334969089343
2025-11-04,4.811204985040546
2025-11-05,4.867768080194352
2025-11-06,4.733983722592614
2025-11-07,4.733983722592614
2025-11-10,4.773661653117473
2025-11-11,4.722913171469849
2025-11-12,4.6841710575410085
2025-11-13,4.471012604532493
2025-11-14,4.456876867795051
2025-11-17,4.295411371296105
2025-11-18,4.284075318022594
2025-11-19,4.279710449412063
2025-11-20,4.226939756532596
2025-11-21,4.226939756532596
2025-11-24,4.255584453688116
2025-11-25,4.30810690097138
2025-11-26,4.29248055810765
2025-11-28,4.287108291237812
2025-12-01,4.227264325545068
2025-12-02,4.219098349500337
2025-12-03,4.206554134287944
2025-12-04,4.198516098686314
2025-12-05,4.204731662807995
2025-12-08,4.167053749886397
2025-12-09,4.178473152442139
2025-12-10,4.189111001297306
2025-12-11,4.162669368555757
2025-12-12,4.151997683511163
2025-12-15,4.139835763667625
2025-12-16,4.124637096243553
2025-12-17,4.065834004376159
2025-12-18,4.086476119443367
2025-12-19,4.097961501626086
2025-12-22,4.104057722089402
2025-12-23,4.106492512525364
2025-12-24,4.186100492294175
2025-12-26,4.176461809533889
2025-12-29,4.253148662819121
2025-12-30,4.22804358838011
2025-12-31,4.162552565095838
2026-01-02,4.432768595102046
2026-01-05,4.469413063794662
2026-01-06,4.5677301900198
2026-01-07,4.552692559399599
2026-01-08,4.511013608194535
2026-01-09,4.588135448324788
2026-01-12,4.6575058995011585
2026-01-13,4.584221140029335
2026-01-14,4.513095173720673
2026-01-15,4.673121088272798
2026-01-16,4.762722187290821
2026-01-20,4.722227720771349
2026-01-21,4.813401085844655
2026-01-22,4.7062781349267375
2026-01-23,4.657777562196204
2026-01-26,4.672298039313712
2026-01-27,4.962696032422268
2026-01-28,5.122387030468944
2026-01-29,5.216620617174125
2026-01-30,4.936984754493226
2026-02-02,5.11517197683703
2026-02-03,4.928217612463832
2026-02-04,4.736171004725758
2026-02-05,4.736171004725758
2026-02-06,4.736171004725758
2026-02-09,4.731585968069908
2026-02-10,4.711211199621169
2026-02-11,4.8567522939844325
2026-02-12,4.848991648241854
2026-02-13,4.858717312438106
2026-02-17,4.819252306309487
2026-02-18,4.872413739729805
2026-02-19,4.833015044234165
2026-02-20,4.875658309397857
2026-02-23,4.8539601550961855
2026-02-24,4.809916425610751
2026-02-25,4.847041314646808
2026-02-26,4.7984433407859175
2026-02-27,4.7660458732841295
2026-03-02,4.785051497444825
2026-03-03,4.635146832035102
2026-03-04,4.655930167780744
2026-03-05,4.6196883975516725
2026-03-06,4.549762177988333
2026-03-09,4.629958890779865
2026-03-10,4.625592100527335
2026-03-11,4.657548751495854
2026-03-12,4.5298881004921085
2026-03-13,4.50603955966204
2026-03-16,4.46423141113657
2026-03-17,4.508683858555715
2026-03-18,4.420568314564076
2026-03-19,4.376465345718372
2026-03-20,4.322486038740977
2026-03-23,4.330695320618787
2026-03-24,4.330695320618787
2026-03-25,4.330695320618787
2026-03-26,4.330695320618787
2026-03-27,4.330695320618787
2026-03-30,4.330695320618787
2026-03-31,4.330695320618787
2026-04-01,4.330695320618787
2026-04-02,4.330695320618787
2026-04-06,4.330695320618787
2026-04-07,4.330695320618787
2026-04-08,4.330695320618787
2026-04-09,4.330695320618787
2026-04-10,4.330695320618787
2026-04-13,4.457325218267214
2026-04-14,4.451767269625151
2026-04-15,4.50394682149118
2026-04-16,4.60742724807413
2026-04-17,4.7127208769431235
2026-04-20,4.750995834219399
2026-04-21,4.828308863711307
2026-04-22,4.893962006854267
2026-04-23,5.0838273556527245
2026-04-24,5.532419626329558
2026-04-27,5.515791870897454
2026-04-28,5.282403744207475
2026-04-29,5.383392983482574
2026-04-30,5.383392983482574
2026-05-01,5.383392983482574
2026-05-04,5.213567767803585
2026-05-05,5.398856907883504
2026-05-06,5.948185507307031
2026-05-07,5.654122597539583
2026-05-08,5.903351620449765
2026-05-11,5.8830026928426165
2026-05-12,5.463877607393812
2026-05-13,5.682655166822341
2026-05-14,5.757966794944032
2026-05-15,5.665413253700596
2026-05-18,5.483327787382995
2026-05-19,5.438276398464522
2026-05-20,5.655938139680849
