Date,Value
2018-01-02,1.0
2018-01-03,1.0
2018-01-04,1.0
2018-01-05,1.0
2018-01-08,1.0243276923826676
2018-01-09,1.02299762261486
2018-01-10,1.0227147207082186
2018-01-11,1.0309464810812712
2018-01-12,1.0410748266118746
2018-01-16,1.0380035739363198
2018-01-17,1.0676604080994627
2018-01-18,1.0571724725884115
2018-01-19,1.0643339386170692
2018-01-22,1.0869617927762811
2018-01-23,1.0938499022775274
2018-01-24,1.0611633497594086
2018-01-25,1.06795963087828
2018-01-26,1.1011791665929245
2018-01-29,1.133671499441326
2018-01-30,1.1167632716236975
2018-01-31,1.101778153327118
2018-02-01,1.0791646449326557
2018-02-02,1.0678319484408245
2018-02-05,1.0341165702959223
2018-02-06,1.0341165702959223
2018-02-07,1.0341165702959223
2018-02-08,1.0341165702959223
2018-02-09,1.0341165702959223
2018-02-12,1.0498026969540069
2018-02-13,1.0461889191663438
2018-02-14,1.078227406691939
2018-02-15,1.0936767465460298
2018-02-16,1.0910017597369293
2018-02-20,1.102040446516755
2018-02-21,1.0838776700811141
2018-02-22,1.083588019835378
2018-02-23,1.0974882516284343
2018-02-26,1.1043961705832352
2018-02-27,1.1036706993207177
2018-02-28,1.1056134257122823
2018-03-01,1.1017467580923903
2018-03-02,1.1124671987439527
2018-03-05,1.1320964275613472
2018-03-06,1.1472301772561841
2018-03-07,1.1476172618473954
2018-03-08,1.1511727217957881
2018-03-09,1.169647943259883
2018-03-12,1.1571332670893333
2018-03-13,1.1456421092551228
2018-03-14,1.1534057643440176
2018-03-15,1.1553663649676413
2018-03-16,1.1522610659840788
2018-03-19,1.143810335558685
2018-03-20,1.1636368463434847
2018-03-21,1.1548120626275478
2018-03-22,1.1365020865227153
2018-03-23,1.122136774088111
2018-03-26,1.1203636605957983
2018-03-27,1.1081289784861683
2018-03-28,1.10234275386652
2018-03-29,1.10234275386652
2018-04-02,1.0878501074556994
2018-04-03,1.0987530517436617
2018-04-04,1.107490342794899
2018-04-05,1.1205342215222847
2018-04-06,1.10813686783322
2018-04-09,1.1031231093338838
2018-04-10,1.1106088936239809
2018-04-11,1.1099628373446089
2018-04-12,1.1239443219869503
2018-04-13,1.114611959497061
2018-04-16,1.1200023846332532
2018-04-17,1.1304907068641057
2018-04-18,1.1317367497354398
2018-04-19,1.1236368972373565
2018-04-20,1.1200345767672246
2018-04-23,1.11804845564951
2018-04-24,1.1183830305250912
2018-04-25,1.1169072547749197
2018-04-26,1.1306500053194644
2018-04-27,1.127045127016181
2018-04-30,1.1211883027039429
2018-05-01,1.132770701077241
2018-05-02,1.1312681155056645
2018-05-03,1.1261006937330933
2018-05-04,1.1333613725644938
2018-05-07,1.1411804189398351
2018-05-08,1.1477813272339406
2018-05-09,1.1589544813453416
2018-05-10,1.161283680764282
2018-05-11,1.154139144953148
2018-05-14,1.1519881558627891
2018-05-15,1.150010212657938
2018-05-16,1.1501038653300109
2018-05-17,1.1513829691418314
2018-05-18,1.1470076633661468
2018-05-21,1.1589850249897724
2018-05-22,1.1560528315152911
2018-05-23,1.1642474426982348
2018-05-24,1.1650426273848118
2018-05-25,1.1689570281503703
2018-05-29,1.1661083844216429
2018-05-30,1.1708258872937
2018-05-31,1.1658324211636097
2018-06-01,1.1775980690128907
2018-06-04,1.174572935705931
2018-06-05,1.1664865357025418
2018-06-06,1.1678200654803539
2018-06-07,1.155148927213393
2018-06-08,1.1506983225643814
2018-06-11,1.1675034482172362
2018-06-12,1.1736460916193168
2018-06-13,1.192530100997422
2018-06-14,1.1926201238304008
2018-06-15,1.1937148022446542
2018-06-18,1.2170968272260139
2018-06-19,1.2012279795977014
2018-06-20,1.1948048728894494
2018-06-21,1.1619336627789156
2018-06-22,1.1676011289505368
2018-06-25,1.1105934010167338
2018-06-26,1.1212921864629068
2018-06-27,1.1148341718704988
2018-06-28,1.11844348182445
2018-06-29,1.115580433889296
2018-07-02,1.101134469317329
2018-07-03,1.0832265639629295
2018-07-05,1.0888737717014036
2018-07-06,1.0959489038969286
2018-07-09,1.0996908656983981
2018-07-10,1.0953190281597336
2018-07-11,1.0882687537106683
2018-07-12,1.0941198173577755
2018-07-13,1.0718725316148783
2018-07-16,1.0854356102126297
2018-07-17,1.0764512239945199
2018-07-18,1.0757928262943548
2018-07-19,1.0711841051814601
2018-07-20,1.0642711176945088
2018-07-23,1.0548864679561305
2018-07-24,1.025069448761446
2018-07-25,1.0371756806347887
2018-07-26,1.1111332145281043
2018-07-27,1.1177857694445161
2018-07-30,1.1178059913688736
2018-07-31,1.0814501523540925
2018-08-01,1.0908908890746756
2018-08-02,1.0894269195936295
2018-08-03,1.0795511424559356
2018-08-06,1.1057744138496552
2018-08-07,1.1116911693071423
2018-08-08,1.086677605655467
2018-08-09,1.0708764375810693
2018-08-10,1.0695596421807394
2018-08-13,1.0860023445706553
2018-08-14,1.1040725694007634
2018-08-15,1.0897963608880954
2018-08-16,1.0803188709997205
2018-08-17,1.0995155702077488
2018-08-20,1.1081610068237053
2018-08-21,1.1219177318170659
2018-08-22,1.1484947941606007
2018-08-23,1.2067260845868006
2018-08-24,1.276080392061863
2018-08-27,1.3223054576152968
2018-08-28,1.322599402061165
2018-08-29,1.327883832998004
2018-08-30,1.3057595985434471
2018-08-31,1.3272426945514666
2018-09-04,1.4340903376667193
2018-09-05,1.4377469953587239
2018-09-06,1.4614971339097904
2018-09-07,1.4552937445973826
2018-09-10,1.5612048928437212
2018-09-11,1.5783046995865564
2018-09-12,1.6281527405001694
2018-09-13,1.5660745705010006
2018-09-14,1.645288026016785
2018-09-17,1.6329002586500838
2018-09-18,1.630161660369958
2018-09-19,1.6025791763395776
2018-09-20,1.5959092115492597
2018-09-21,1.5845439536236166
2018-09-24,1.6434686633519457
2018-09-25,1.6543483246234554
2018-09-26,1.6372653283951153
2018-09-27,1.629782267234916
2018-09-28,1.5819968804898097
2018-10-01,1.580802873268075
2018-10-02,1.4744485095470559
2018-10-03,1.4406997843380707
2018-10-04,1.4406997843380707
2018-10-05,1.4406997843380707
2018-10-08,1.4402218959202908
2018-10-09,1.445021081243004
2018-10-10,1.4181222629921335
2018-10-11,1.4181222629921335
2018-10-12,1.4181222629921335
2018-10-15,1.4205122221231696
2018-10-16,1.427178884563355
2018-10-17,1.4352922207380405
2018-10-18,1.4323990437668288
2018-10-19,1.4325248143020655
2018-10-22,1.4332976481902708
2018-10-23,1.4351626434493112
2018-10-24,1.4295615636546772
2018-10-25,1.4411893527830428
2018-10-26,1.434707808024867
2018-10-29,1.440643936241136
2018-10-30,1.440643936241136
2018-10-31,1.440643936241136
2018-11-01,1.440643936241136
2018-11-02,1.440643936241136
2018-11-05,1.440643936241136
2018-11-06,1.440643936241136
2018-11-07,1.440643936241136
2018-11-08,1.440643936241136
2018-11-09,1.440643936241136
2018-11-12,1.440643936241136
2018-11-13,1.440643936241136
2018-11-14,1.440643936241136
2018-11-15,1.440643936241136
2018-11-16,1.440643936241136
2018-11-19,1.440643936241136
2018-11-20,1.440643936241136
2018-11-21,1.440643936241136
2018-11-23,1.440643936241136
2018-11-26,1.440643936241136
2018-11-27,1.440643936241136
2018-11-28,1.440643936241136
2018-11-29,1.440643936241136
2018-11-30,1.440643936241136
2018-12-03,1.440643936241136
2018-12-04,1.440643936241136
2018-12-06,1.440643936241136
2018-12-07,1.440643936241136
2018-12-10,1.440643936241136
2018-12-11,1.440643936241136
2018-12-12,1.440643936241136
2018-12-13,1.440643936241136
2018-12-14,1.440643936241136
2018-12-17,1.440643936241136
2018-12-18,1.440643936241136
2018-12-19,1.440643936241136
2018-12-20,1.440643936241136
2018-12-21,1.440643936241136
2018-12-24,1.440643936241136
2018-12-26,1.440643936241136
2018-12-27,1.440643936241136
2018-12-28,1.440643936241136
2018-12-31,1.440643936241136
2019-01-02,1.440643936241136
2019-01-03,1.440643936241136
2019-01-04,1.440643936241136
2019-01-07,1.440643936241136
2019-01-08,1.440643936241136
2019-01-09,1.440643936241136
2019-01-10,1.440643936241136
2019-01-11,1.440643936241136
2019-01-14,1.440643936241136
2019-01-15,1.440643936241136
2019-01-16,1.440643936241136
2019-01-17,1.440643936241136
2019-01-18,1.440643936241136
2019-01-22,1.440643936241136
2019-01-23,1.440643936241136
2019-01-24,1.440643936241136
2019-01-25,1.440643936241136
2019-01-28,1.440643936241136
2019-01-29,1.440643936241136
2019-01-30,1.440643936241136
2019-01-31,1.440643936241136
2019-02-01,1.440643936241136
2019-02-04,1.440643936241136
2019-02-05,1.440643936241136
2019-02-06,1.440643936241136
2019-02-07,1.440643936241136
2019-02-08,1.440643936241136
2019-02-11,1.440643936241136
2019-02-12,1.440643936241136
2019-02-13,1.440643936241136
2019-02-14,1.440643936241136
2019-02-15,1.440643936241136
2019-02-19,1.4354095645582514
2019-02-20,1.4463456558037697
2019-02-21,1.4516470909117523
2019-02-22,1.475480784174017
2019-02-25,1.4892617874144143
2019-02-26,1.410716511502931
2019-02-27,1.4053021572397326
2019-02-28,1.4008835453311388
2019-03-01,1.4035107379680336
2019-03-04,1.3777798009772697
2019-03-05,1.3551666643958695
2019-03-06,1.3535800653582224
2019-03-07,1.364087916125326
2019-03-08,1.3797919665132294
2019-03-11,1.412123811639037
2019-03-12,1.4157034256108445
2019-03-13,1.42898259752526
2019-03-14,1.4536933645567796
2019-03-15,1.4565801372295955
2019-03-18,1.4867376057501902
2019-03-19,1.4980250966978559
2019-03-20,1.518743828879976
2019-03-21,1.6029306677454356
2019-03-22,1.5481097502759786
2019-03-25,1.5598914427229937
2019-03-26,1.5933689837552893
2019-03-27,1.5573930703671217
2019-03-28,1.5724557410614513
2019-03-29,1.5753915667341927
2019-04-01,1.577982014593473
2019-04-02,1.5632251965070365
2019-04-03,1.5550252630095365
2019-04-04,1.4389262777396499
2019-04-05,1.4168560568752502
2019-04-08,1.3971863179511153
2019-04-09,1.3654289589940953
2019-04-10,1.3799536359961817
2019-04-11,1.3789689368030522
2019-04-12,1.3804460090703867
2019-04-15,1.3768631123997361
2019-04-16,1.3595379109667085
2019-04-17,1.3199883946649986
2019-04-18,1.3018702277021874
2019-04-22,1.3308114206731942
2019-04-23,1.3625587512655635
2019-04-24,1.3754764841397242
2019-04-25,1.3421033434070855
2019-04-26,1.3597211957223618
2019-04-29,1.3597848336522143
2019-04-30,1.3496031587470023
2019-05-01,1.3312814744101624
2019-05-02,1.3737009626460088
2019-05-03,1.3886873574120004
2019-05-06,1.3609099226225019
2019-05-07,1.3184954511539284
2019-05-08,1.323951852003592
2019-05-09,1.320999293827235
2019-05-10,1.3554731511986278
2019-05-13,1.2979746374794747
2019-05-14,1.3153840283295184
2019-05-15,1.316394226323249
2019-05-16,1.2895807292087007
2019-05-17,1.2773011203664684
2019-05-20,1.269992247850416
2019-05-21,1.2743749374902085
2019-05-22,1.2808719549101801
2019-05-23,1.2621040621424686
2019-05-24,1.2683819269169065
2019-05-28,1.2781383391708228
2019-05-29,1.2538930390484748
2019-05-30,1.2666324222752743
2019-05-31,1.2447411229362757
2019-06-03,1.2440079357022351
2019-06-04,1.2440079357022351
2019-06-05,1.2440079357022351
2019-06-06,1.2440079357022351
2019-06-07,1.2440079357022351
2019-06-10,1.2394819544554299
2019-06-11,1.2057534962027696
2019-06-12,1.224533962053436
2019-06-13,1.2205070817375236
2019-06-14,1.2121027661136328
2019-06-17,1.2110280262328375
2019-06-18,1.2127473113095077
2019-06-19,1.286262734432373
2019-06-20,1.2872797161620155
2019-06-21,1.2709722743880238
2019-06-24,1.2242512533550833
2019-06-25,1.1753286068603481
2019-06-26,1.156235947881445
2019-06-27,1.156235947881445
2019-06-28,1.156235947881445
2019-07-01,1.1381629201167227
2019-07-02,1.1525283382806546
2019-07-03,1.1541855942139945
2019-07-05,1.1605536993286596
2019-07-08,1.184011916527451
2019-07-09,1.2060338177757883
2019-07-10,1.21210862251578
2019-07-11,1.1913210508582441
2019-07-12,1.1847195359537719
2019-07-15,1.2324054558712176
2019-07-16,1.2101648949795791
2019-07-17,1.2204742556280999
2019-07-18,1.2204846407534333
2019-07-19,1.2094193092028798
2019-07-22,1.2254187496971851
2019-07-23,1.2276533149027244
2019-07-24,1.2377106669637397
2019-07-25,1.2367715251533062
2019-07-26,1.2491312384239723
2019-07-29,1.2077824635425185
2019-07-30,1.2047399405393837
2019-07-31,1.1680740820314226
2019-08-01,1.212116701370955
2019-08-02,1.1948818515025001
2019-08-05,1.1721628907750394
2019-08-06,1.1983289991147048
2019-08-07,1.2152544200548645
2019-08-08,1.2494004486179038
2019-08-09,1.2722355032963586
2019-08-12,1.2619199440465976
2019-08-13,1.2719035324868535
2019-08-14,1.2358548724033673
2019-08-15,1.2344936341086192
2019-08-16,1.2519131364945923
2019-08-19,1.2581332019252918
2019-08-20,1.2795750729595219
2019-08-21,1.3095394503699078
2019-08-22,1.307646650601355
2019-08-23,1.291284003348652
2019-08-26,1.3215778450407987
2019-08-27,1.3409775211879604
2019-08-28,1.3211611792978228
2019-08-29,1.31731385760403
2019-08-30,1.3019612884453404
2019-09-03,1.2998358400136087
2019-09-04,1.3026352590585715
2019-09-05,1.3126114024776148
2019-09-06,1.2901238287885661
2019-09-09,1.2478233908822363
2019-09-10,1.2439174429338475
2019-09-11,1.2439174429338475
2019-09-12,1.2439174429338475
2019-09-13,1.2439174429338475
2019-09-16,1.2618627010357235
2019-09-17,1.2764221995815999
2019-09-18,1.2943950438974543
2019-09-19,1.2829297542324105
2019-09-20,1.267450821479696
2019-09-23,1.2816724278779468
2019-09-24,1.2634696286291014
2019-09-25,1.2926248441957784
2019-09-26,1.2873859996591404
2019-09-27,1.246570783987797
2019-09-30,1.2525043292084947
2019-10-01,1.2466745224109839
2019-10-02,1.2298754427373428
2019-10-03,1.2392903256521821
2019-10-04,1.2623845559584796
2019-10-07,1.260595832440511
2019-10-08,1.2272512408632381
2019-10-09,1.2470172619413016
2019-10-10,1.2487108063511076
2019-10-11,1.2638626253968686
2019-10-14,1.2576595326067572
2019-10-15,1.2803969490986447
2019-10-16,1.2582667545207689
2019-10-17,1.267908670407484
2019-10-18,1.2570331904803695
2019-10-21,1.2815311695374239
2019-10-22,1.2717660007037908
2019-10-23,1.252269746170604
2019-10-24,1.3382871974313693
2019-10-25,1.349360756767235
2019-10-28,1.3848399567653704
2019-10-29,1.35954731778076
2019-10-30,1.372208497900727
2019-10-31,1.346945297856577
2019-11-01,1.3709035231248774
2019-11-04,1.3773752599796363
2019-11-05,1.3686421179167731
2019-11-06,1.367579117977062
2019-11-07,1.3632902429543692
2019-11-08,1.3707930071970096
2019-11-11,1.3697801753697472
2019-11-12,1.368037086754602
2019-11-13,1.3794406553809582
2019-11-14,1.384065351789014
2019-11-15,1.4046211368309867
2019-11-18,1.3996741467121985
2019-11-19,1.387346683489611
2019-11-20,1.3740205669993015
2019-11-21,1.3345637516060584
2019-11-22,1.3329544224086378
2019-11-25,1.3224012206383806
2019-11-26,1.2945405512442525
2019-11-27,1.306214591654495
2019-11-29,1.2992145721069832
2019-12-02,1.301670617817154
2019-12-03,1.3071134336254382
2019-12-04,1.3143069456682266
2019-12-05,1.3079771085324174
2019-12-06,1.3188305691849753
2019-12-09,1.3140652050041037
2019-12-10,1.3406911213166028
2019-12-11,1.3486688513738276
2019-12-12,1.4148228339896378
2019-12-13,1.388029042114627
2019-12-16,1.453008825144027
2019-12-17,1.4552370599426487
2019-12-18,1.4747153221252969
2019-12-19,1.5047370676648746
2019-12-20,1.5300094202042638
2019-12-23,1.5784954794614818
2019-12-24,1.6083900590656013
2019-12-26,1.6209223749968267
2019-12-27,1.612245596977667
2019-12-30,1.5707588359324274
2019-12-31,1.583521914380981
2020-01-02,1.6612820020394174
2020-01-03,1.6775249161364338
2020-01-06,1.6904925802370814
2020-01-07,1.722042665383055
2020-01-08,1.7596305470004898
2020-01-09,1.7579607011017524
2020-01-10,1.7382877392344698
2020-01-13,1.8384873989102979
2020-01-14,1.8546554144215446
2020-01-15,1.822802196871807
2020-01-16,1.8336895714873962
2020-01-17,1.8474745250688875
2020-01-21,1.9205369881928664
2020-01-22,1.9702295192909902
2020-01-23,1.9800639276868313
2020-01-24,1.9428318639956268
2020-01-27,1.8908620104944731
2020-01-28,1.9080504059234813
2020-01-29,1.9353235224384049
2020-01-30,2.0511131816394026
2020-01-31,2.070004921592203
2020-02-03,2.3225077038799715
2020-02-04,2.557560630010182
2020-02-05,2.373088954361012
2020-02-06,2.3686218866126527
2020-02-07,2.378508311417784
2020-02-10,2.437078081100065
2020-02-11,2.440525075994649
2020-02-12,2.498320745269612
2020-02-13,2.5299060874986736
2020-02-14,2.531106735082904
2020-02-18,2.575348180162731
2020-02-19,2.6135130113191334
2020-02-20,2.561021172025365
2020-02-21,2.4252627274887875
2020-02-24,2.4434677238586
2020-02-25,2.3874481473050664
2020-02-26,2.4059521141968054
2020-02-27,2.331246201032461
2020-02-28,2.37047297189028
2020-03-02,2.4112253270356674
2020-03-03,2.3832699640162507
2020-03-04,2.4678760395629045
2020-03-05,2.435565803822442
2020-03-06,2.427677237383029
2020-03-09,2.332137060456421
2020-03-10,2.332137060456421
2020-03-11,2.332137060456421
2020-03-12,2.332137060456421
2020-03-13,2.332137060456421
2020-03-16,2.332137060456421
2020-03-17,2.332137060456421
2020-03-18,2.332137060456421
2020-03-19,2.332137060456421
2020-03-20,2.332137060456421
2020-03-23,2.332137060456421
2020-03-24,2.332137060456421
2020-03-25,2.332137060456421
2020-03-26,2.332137060456421
2020-03-27,2.332137060456421
2020-03-30,2.332137060456421
2020-03-31,2.332137060456421
2020-04-01,2.332137060456421
2020-04-02,2.332137060456421
2020-04-03,2.332137060456421
2020-04-06,2.332137060456421
2020-04-07,2.332137060456421
2020-04-08,2.332137060456421
2020-04-09,2.332137060456421
2020-04-13,2.314098330612656
2020-04-14,2.4352353758594187
2020-04-15,2.5173276786425007
2020-04-16,2.55756727270208
2020-04-17,2.5403279090177744
2020-04-20,2.6602386852695714
2020-04-21,2.515695243021363
2020-04-22,2.5874199284676447
2020-04-23,2.5921024192297306
2020-04-24,2.677179077655435
2020-04-27,2.763450889056736
2020-04-28,2.6253741473448002
2020-04-29,2.606645642753594
2020-04-30,2.5822739621829287
2020-05-01,2.609246081268764
2020-05-04,2.73471155637011
2020-05-05,2.7368854791316117
2020-05-06,2.777838728367027
2020-05-07,2.8817854092415027
2020-05-08,2.8904453843663847
2020-05-11,2.934554284562315
2020-05-12,2.923655181822413
2020-05-13,2.908599315676075
2020-05-14,2.928438739802777
2020-05-15,2.942465748456053
2020-05-18,2.8745570893301733
2020-05-19,2.949863802506157
2020-05-20,3.031671856596166
2020-05-21,2.9981828102824215
2020-05-22,3.054616695982681
2020-05-26,2.9892651185336616
2020-05-27,2.925671070796089
2020-05-28,2.979164739314867
2020-05-29,3.5522903872608707
2020-06-01,3.91022585648047
2020-06-02,3.7887481742514875
2020-06-03,3.9289493756379916
2020-06-04,3.806901641786263
2020-06-05,3.69755550729133
2020-06-08,3.7901966776448908
2020-06-09,3.774921018455968
2020-06-10,3.88047062645115
2020-06-11,3.7812629103300472
2020-06-12,3.738836510051674
2020-06-15,3.8947984161959797
2020-06-16,3.904258845875458
2020-06-17,3.9184042481034513
2020-06-18,4.1022603902647745
2020-06-19,4.009992857332445
2020-06-22,4.1092436379212245
2020-06-23,4.105824017644573
2020-06-24,4.057019671928797
2020-06-25,4.158456855186312
2020-06-26,3.9171356195705647
2020-06-29,3.892151010781978
2020-06-30,4.011051972528969
2020-07-01,4.101146364322627
2020-07-02,4.164316237558571
2020-07-06,4.2298757831164195
2020-07-07,4.2133548976464175
2020-07-08,4.504506661419465
2020-07-09,4.682514496939256
2020-07-10,4.631253100583844
2020-07-13,4.319710108025098
2020-07-14,4.24754740778539
2020-07-15,4.20036537343723
2020-07-16,4.151361808492986
2020-07-17,4.208927373348812
2020-07-20,4.506387663311088
2020-07-21,4.368463778325017
2020-07-22,4.3937377767349455
2020-07-23,4.2584224821524055
2020-07-24,4.056621670775536
2020-07-27,4.234781056069606
2020-07-28,4.169312074542877
2020-07-29,4.303194212509395
2020-07-30,4.383158673955984
2020-07-31,4.424707954810718
2020-08-03,4.562330545256128
2020-08-04,4.563089865203054
2020-08-05,4.694587802372233
2020-08-06,4.643547172781587
2020-08-07,4.478823092204189
2020-08-10,4.226959897950625
2020-08-11,4.182465329046236
2020-08-12,4.203760432495484
2020-08-13,4.2869084092361796
2020-08-14,4.285791272932721
2020-08-17,4.551042623764078
2020-08-18,4.651585334227606
2020-08-19,4.647551886338481
2020-08-20,4.816849541078697
2020-08-21,4.849445441302099
2020-08-24,4.821388502237711
2020-08-25,4.854951945819556
2020-08-26,5.007160068962238
2020-08-27,5.0906261234394
2020-08-28,5.016822857308544
2020-08-31,5.31185589740943
2020-09-01,5.162208992613927
2020-09-02,4.757009999525227
2020-09-03,4.757009999525227
2020-09-04,4.757009999525227
2020-09-08,4.778560817422502
2020-09-09,4.905122984561683
2020-09-10,4.851253959953005
2020-09-11,4.813095692409885
2020-09-14,4.902324134021877
2020-09-15,4.939274080608516
2020-09-16,4.885643321121815
2020-09-17,4.850467970834869
2020-09-18,4.81402224693507
2020-09-21,4.858485888703608
2020-09-22,4.8841939071816505
2020-09-23,4.773818022935155
2020-09-24,4.80425698252767
2020-09-25,4.88319642206836
2020-09-28,4.918966297719097
2020-09-29,4.942154297811502
2020-09-30,4.992171174347301
2020-10-01,5.0112135727174145
2020-10-02,4.927561447727478
2020-10-05,5.00455988069364
2020-10-06,5.007215263673425
2020-10-07,5.078915169766044
2020-10-08,5.067407651622139
2020-10-09,5.08818017944116
2020-10-12,5.140517635362786
2020-10-13,5.141585954645217
2020-10-14,5.10136251592101
2020-10-15,5.068351055380422
2020-10-16,5.056390350247615
2020-10-19,5.007093210851983
2020-10-20,5.026813011560163
2020-10-21,5.005973566749636
2020-10-22,4.952710187874397
2020-10-23,4.975944089164645
2020-10-26,4.907735672833611
2020-10-27,4.9049163167259096
2020-10-28,4.862820105387902
2020-10-29,4.910068993523941
2020-10-30,4.880125170564277
2020-11-02,4.9015479194658
2020-11-03,4.95443675178852
2020-11-04,4.974086687474073
2020-11-05,5.119574829849408
2020-11-06,5.142682058642649
2020-11-09,5.147418946692582
2020-11-10,5.132164057917767
2020-11-11,5.211992539805111
2020-11-12,5.15653003235292
2020-11-13,5.176805097722758
2020-11-16,5.265135695279692
2020-11-17,5.255025152699075
2020-11-18,5.215663449185655
2020-11-19,5.2239351789383015
2020-11-20,5.191252660540895
2020-11-23,5.175825462934178
2020-11-24,5.220957255064745
2020-11-25,5.193845294466158
2020-11-27,5.200387434827864
2020-11-30,5.222352508712962
2020-12-01,5.268174136093777
2020-12-02,5.2383250683909885
2020-12-03,5.241552419023698
2020-12-04,5.337539825085284
2020-12-07,5.339758959759266
2020-12-08,5.347067759188016
2020-12-09,5.314631648690774
2020-12-10,5.30497912954318
2020-12-11,5.230946714177043
2020-12-14,5.212047210052093
2020-12-15,5.194427019599493
2020-12-16,5.206946583766374
2020-12-17,5.494432744372682
2020-12-18,5.5397986615395265
2020-12-21,5.575358427541898
2020-12-22,5.66360323892051
2020-12-23,5.503604250325306
2020-12-24,5.531435570655667
2020-12-28,5.4141554384673505
2020-12-29,5.406698232562832
2020-12-30,5.408076267138979
2020-12-31,5.380125743936267
2021-01-04,5.2698927251098295
2021-01-05,5.309241954786472
2021-01-06,5.183427249427969
2021-01-07,5.183427249427969
2021-01-08,5.183427249427969
2021-01-11,5.166383090206527
2021-01-12,5.298736628292469
2021-01-13,5.230813549658842
2021-01-14,5.192830649318924
2021-01-15,5.064541254287122
2021-01-19,5.1485811364580485
2021-01-20,5.217687716331042
2021-01-21,5.13926250923504
2021-01-22,5.173499382169007
2021-01-25,5.207852375353193
2021-01-26,5.090961218656769
2021-01-27,4.984620442612311
2021-01-28,4.896958422795803
2021-01-29,4.769112145833692
2021-02-01,4.893518394486937
2021-02-02,5.044344717370398
2021-02-03,4.972638178291895
2021-02-04,5.02215466284525
2021-02-05,5.02378552639094
2021-02-08,5.045244149807833
2021-02-09,5.017393505824705
2021-02-10,4.963908835345496
2021-02-11,5.022182933372902
2021-02-12,5.114935561790698
2021-02-16,5.057685375827525
2021-02-17,4.962234004571696
2021-02-18,4.969714778659755
2021-02-19,4.9691726624128165
2021-02-22,4.778007503451404
2021-02-23,4.602235851413713
2021-02-24,4.602235851413713
2021-02-25,4.602235851413713
2021-02-26,4.602235851413713
2021-03-01,4.615072531435311
2021-03-02,4.525308838871295
2021-03-03,4.481653399365136
2021-03-04,4.362325357827388
2021-03-05,4.3471187817887404
2021-03-08,4.235329222057475
2021-03-09,4.369757262042809
2021-03-10,4.307188317159671
2021-03-11,4.398494175367573
2021-03-12,4.351657874681097
2021-03-15,4.370593952800042
2021-03-16,4.437128678443985
2021-03-17,4.491477204947108
2021-03-18,4.376715379695237
2021-03-19,4.390770157252388
2021-03-22,4.443284878630249
2021-03-23,4.342713689059346
2021-03-24,4.388189051124989
2021-03-25,4.374893159615198
2021-03-26,4.460833597245179
2021-03-29,4.449619192195652
2021-03-30,4.434386859150582
2021-03-31,4.50827364985066
2021-04-01,4.603678703204691
2021-04-05,4.687520500109233
2021-04-06,4.619673487309669
2021-04-07,4.639779369127702
2021-04-08,4.669582232335376
2021-04-09,4.707359540142925
2021-04-12,4.570723736129057
2021-04-13,4.565089724725169
2021-04-14,4.520074722800868
2021-04-15,4.551496779043337
2021-04-16,4.535569818304216
2021-04-19,4.451444220438876
2021-04-20,4.4307834981899825
2021-04-21,4.4307834981899825
2021-04-22,4.4307834981899825
2021-04-23,4.4307834981899825
2021-04-26,4.470089721047659
2021-04-27,4.449886001117852
2021-04-28,4.450922808596594
2021-04-29,4.431751957897298
2021-04-30,4.392267974414531
2021-05-03,4.401088530240791
2021-05-04,4.285772049359833
2021-05-05,4.284491213382882
2021-05-06,4.318533425140516
2021-05-07,4.375985978257431
2021-05-10,4.188916186735651
2021-05-11,4.193927591368617
2021-05-12,4.123797630891071
2021-05-13,4.123797630891071
2021-05-14,4.123797630891071
2021-05-17,4.1256085259680875
2021-05-18,4.097699397562936
2021-05-19,4.103050317812164
2021-05-20,4.12658396010071
2021-05-21,4.1202600862570575
2021-05-24,4.157090344830989
2021-05-25,4.167411799906832
2021-05-26,4.16193496057407
2021-05-27,4.182116896250962
2021-05-28,4.168285368607364
2021-06-01,4.175263598660111
2021-06-02,4.170809802394304
2021-06-03,4.15524363516428
2021-06-04,4.174687007055382
2021-06-07,4.166824005886987
2021-06-08,4.160438643758642
2021-06-09,4.143980583238287
2021-06-10,4.1512470016937755
2021-06-11,4.147301556832428
2021-06-14,4.178482129395838
2021-06-15,4.151738044184476
2021-06-16,4.135614950833032
2021-06-17,4.251608080432332
2021-06-18,4.226941091389818
2021-06-21,4.211082804283857
2021-06-22,4.2864845338706985
2021-06-23,4.3113690467570205
2021-06-24,4.337061963720505
2021-06-25,4.310891766306337
2021-06-28,4.468348474976911
2021-06-29,4.460856050920569
2021-06-30,4.44430244735369
2021-07-01,4.490539946499993
2021-07-02,4.523422636857008
2021-07-06,4.5416155050231195
2021-07-07,4.496226754224643
2021-07-08,4.425971512405576
2021-07-09,4.458745639142494
2021-07-12,4.521313526978813
2021-07-13,4.4873803531075245
2021-07-14,4.425384791173154
2021-07-15,4.345630607928237
2021-07-16,4.334780280608205
2021-07-19,4.320807966583729
2021-07-20,4.357482930469198
2021-07-21,4.385269736096032
2021-07-22,4.416440263171539
2021-07-23,4.493022989775063
2021-07-26,4.503708106770738
2021-07-27,4.474553094887831
2021-07-28,4.492950096968404
2021-07-29,4.448983197106622
2021-07-30,4.452004293923677
2021-08-02,4.43237193312313
2021-08-03,4.435821524942555
2021-08-04,4.473812784329046
2021-08-05,4.49135400854781
2021-08-06,4.485070179425352
2021-08-09,4.480859111355308
2021-08-10,4.468232036683389
2021-08-11,4.468934498236173
2021-08-12,4.487939891548817
2021-08-13,4.4979590694501095
2021-08-16,4.513838740626218
2021-08-17,4.471834172623366
2021-08-18,4.45573051797238
2021-08-19,4.476443954808175
2021-08-20,4.480473834677227
2021-08-23,4.52053425650602
2021-08-24,4.574870435149171
2021-08-25,4.580883286959416
2021-08-26,4.488831266533163
2021-08-27,4.549440378228069
2021-08-30,4.600573279101589
2021-08-31,4.6219869340788575
2021-09-01,4.573980198003355
2021-09-02,4.6412095316635185
2021-09-03,4.700088801917518
2021-09-07,4.651563311859846
2021-09-08,4.671151399665584
2021-09-09,4.690345569669669
2021-09-10,4.548263354444309
2021-09-13,4.493968044571253
2021-09-14,4.543448447963986
2021-09-15,4.560398579973784
2021-09-16,4.646518448910793
2021-09-17,4.629226079991378
2021-09-20,4.607845220541018
2021-09-21,4.659977788915241
2021-09-22,4.7676240033582165
2021-09-23,4.7550670800763335
2021-09-24,4.738062115987844
2021-09-27,4.589155967126937
2021-09-28,4.465367135460081
2021-09-29,4.466287694022624
2021-09-30,4.5513602298277345
2021-10-01,4.615483660198359
2021-10-04,4.435746131436688
2021-10-05,4.517756806212354
2021-10-06,4.54206895052215
2021-10-07,4.521352383759723
2021-10-08,4.490876578832687
2021-10-11,4.5364344250755195
2021-10-12,4.610910479054005
2021-10-13,4.785556909836929
2021-10-14,4.738812511646833
2021-10-15,4.769043160253313
2021-10-18,4.83599600335653
2021-10-19,4.838815573536089
2021-10-20,4.853102056580933
2021-10-21,4.879644472165852
2021-10-22,4.896027870507682
2021-10-25,4.867722522062589
2021-10-26,4.881460614531803
2021-10-27,4.779702262276906
2021-10-28,4.859199555394527
2021-10-29,4.987072183895917
2021-11-01,4.953627098230084
2021-11-02,4.948488954964149
2021-11-03,4.891140396354213
2021-11-04,4.95071970669873
2021-11-05,5.268376601148392
2021-11-08,5.4217553167488
2021-11-09,5.499652252114489
2021-11-10,5.336986344186461
2021-11-11,5.383079275005723
2021-11-12,5.445706499673326
2021-11-15,5.417487928748536
2021-11-16,5.472253476728214
2021-11-17,5.395057095246754
2021-11-18,5.4150206889344155
2021-11-19,5.472757686364776
2021-11-22,5.291708168839965
2021-11-23,5.107823811958642
2021-11-24,5.145732832918746
2021-11-26,5.1083232150970215
2021-11-29,5.220783835871391
2021-11-30,5.153574301618621
2021-12-01,4.960312763233855
2021-12-02,5.002059416693475
2021-12-03,4.860780765525598
2021-12-06,4.739947284672381
2021-12-07,4.739947284672381
2021-12-08,4.739947284672381
2021-12-09,4.739947284672381
2021-12-10,4.739947284672381
2021-12-13,4.618299511975188
2021-12-14,4.558620184443884
2021-12-15,4.73349965931402
2021-12-16,4.535142218863632
2021-12-17,4.600181778191191
2021-12-20,4.641534206259928
2021-12-21,4.717952000236934
2021-12-22,4.804390040558504
2021-12-23,4.824342582090253
2021-12-27,4.942945197478176
2021-12-28,4.84835754496911
2021-12-29,4.8765122877377465
2021-12-30,4.819036659493143
2021-12-31,4.821601970630468
2022-01-03,4.865145552714591
2022-01-04,4.865649433178222
2022-01-05,4.647997833331601
2022-01-06,4.664517883374215
2022-01-07,4.554896054583994
2022-01-10,4.498656555442507
2022-01-11,4.502358157183554
2022-01-12,4.513223599366202
2022-01-13,4.519313054747492
2022-01-14,4.540088629944169
2022-01-18,4.443877330529438
2022-01-19,4.409609375990248
2022-01-20,4.38442142271524
2022-01-21,4.38442142271524
2022-01-24,4.38442142271524
2022-01-25,4.38442142271524
2022-01-26,4.38442142271524
2022-01-27,4.38442142271524
2022-01-28,4.38442142271524
2022-01-31,4.38442142271524
2022-02-01,4.38442142271524
2022-02-02,4.38442142271524
2022-02-03,4.38442142271524
2022-02-04,4.38442142271524
2022-02-07,4.38442142271524
2022-02-08,4.38442142271524
2022-02-09,4.38442142271524
2022-02-10,4.38442142271524
2022-02-11,4.38442142271524
2022-02-14,4.38442142271524
2022-02-15,4.38442142271524
2022-02-16,4.38442142271524
2022-02-17,4.38442142271524
2022-02-18,4.38442142271524
2022-02-22,4.38442142271524
2022-02-23,4.38442142271524
2022-02-24,4.38442142271524
2022-02-25,4.38442142271524
2022-02-28,4.38442142271524
2022-03-01,4.38442142271524
2022-03-02,4.38442142271524
2022-03-03,4.38442142271524
2022-03-04,4.38442142271524
2022-03-07,4.38442142271524
2022-03-08,4.38442142271524
2022-03-09,4.38442142271524
2022-03-10,4.38442142271524
2022-03-11,4.38442142271524
2022-03-14,4.38442142271524
2022-03-15,4.38442142271524
2022-03-16,4.38442142271524
2022-03-17,4.38442142271524
2022-03-18,4.38442142271524
2022-03-21,4.38442142271524
2022-03-22,4.38442142271524
2022-03-23,4.38442142271524
2022-03-24,4.38442142271524
2022-03-25,4.38442142271524
2022-03-28,4.38442142271524
2022-03-29,4.38442142271524
2022-03-30,4.38442142271524
2022-03-31,4.38442142271524
2022-04-01,4.38442142271524
2022-04-04,4.38442142271524
2022-04-05,4.38442142271524
2022-04-06,4.38442142271524
2022-04-07,4.38442142271524
2022-04-08,4.38442142271524
2022-04-11,4.38442142271524
2022-04-12,4.38442142271524
2022-04-13,4.38442142271524
2022-04-14,4.38442142271524
2022-04-18,4.38442142271524
2022-04-19,4.38442142271524
2022-04-20,4.38442142271524
2022-04-21,4.38442142271524
2022-04-22,4.38442142271524
2022-04-25,4.38442142271524
2022-04-26,4.38442142271524
2022-04-27,4.38442142271524
2022-04-28,4.38442142271524
2022-04-29,4.38442142271524
2022-05-02,4.38442142271524
2022-05-03,4.38442142271524
2022-05-04,4.38442142271524
2022-05-05,4.38442142271524
2022-05-06,4.38442142271524
2022-05-09,4.38442142271524
2022-05-10,4.38442142271524
2022-05-11,4.38442142271524
2022-05-12,4.38442142271524
2022-05-13,4.38442142271524
2022-05-16,4.38442142271524
2022-05-17,4.38442142271524
2022-05-18,4.38442142271524
2022-05-19,4.38442142271524
2022-05-20,4.38442142271524
2022-05-23,4.38442142271524
2022-05-24,4.38442142271524
2022-05-25,4.38442142271524
2022-05-26,4.38442142271524
2022-05-27,4.38442142271524
2022-05-31,4.38442142271524
2022-06-01,4.38442142271524
2022-06-02,4.38442142271524
2022-06-03,4.38442142271524
2022-06-06,4.38442142271524
2022-06-07,4.38442142271524
2022-06-08,4.38442142271524
2022-06-09,4.38442142271524
2022-06-10,4.38442142271524
2022-06-13,4.38442142271524
2022-06-14,4.38442142271524
2022-06-15,4.38442142271524
2022-06-16,4.38442142271524
2022-06-17,4.38442142271524
2022-06-21,4.38442142271524
2022-06-22,4.38442142271524
2022-06-23,4.38442142271524
2022-06-24,4.38442142271524
2022-06-27,4.38442142271524
2022-06-28,4.38442142271524
2022-06-29,4.38442142271524
2022-06-30,4.38442142271524
2022-07-01,4.38442142271524
2022-07-05,4.38442142271524
2022-07-06,4.38442142271524
2022-07-07,4.38442142271524
2022-07-08,4.38442142271524
2022-07-11,4.38442142271524
2022-07-12,4.38442142271524
2022-07-13,4.38442142271524
2022-07-14,4.38442142271524
2022-07-15,4.38442142271524
2022-07-18,4.38442142271524
2022-07-19,4.38442142271524
2022-07-20,4.38442142271524
2022-07-21,4.38442142271524
2022-07-22,4.38442142271524
2022-07-25,4.38442142271524
2022-07-26,4.38442142271524
2022-07-27,4.38442142271524
2022-07-28,4.38442142271524
2022-07-29,4.38442142271524
2022-08-01,4.38442142271524
2022-08-02,4.38442142271524
2022-08-03,4.38442142271524
2022-08-04,4.38442142271524
2022-08-05,4.38442142271524
2022-08-08,4.38442142271524
2022-08-09,4.38442142271524
2022-08-10,4.38442142271524
2022-08-11,4.38442142271524
2022-08-12,4.38442142271524
2022-08-15,4.38442142271524
2022-08-16,4.38442142271524
2022-08-17,4.38442142271524
2022-08-18,4.38442142271524
2022-08-19,4.38442142271524
2022-08-22,4.38442142271524
2022-08-23,4.38442142271524
2022-08-24,4.38442142271524
2022-08-25,4.38442142271524
2022-08-26,4.38442142271524
2022-08-29,4.38442142271524
2022-08-30,4.38442142271524
2022-08-31,4.38442142271524
2022-09-01,4.38442142271524
2022-09-02,4.38442142271524
2022-09-06,4.38442142271524
2022-09-07,4.38442142271524
2022-09-08,4.38442142271524
2022-09-09,4.38442142271524
2022-09-12,4.38442142271524
2022-09-13,4.38442142271524
2022-09-14,4.38442142271524
2022-09-15,4.38442142271524
2022-09-16,4.38442142271524
2022-09-19,4.38442142271524
2022-09-20,4.38442142271524
2022-09-21,4.38442142271524
2022-09-22,4.38442142271524
2022-09-23,4.38442142271524
2022-09-26,4.38442142271524
2022-09-27,4.38442142271524
2022-09-28,4.38442142271524
2022-09-29,4.38442142271524
2022-09-30,4.38442142271524
2022-10-03,4.38442142271524
2022-10-04,4.38442142271524
2022-10-05,4.38442142271524
2022-10-06,4.38442142271524
2022-10-07,4.38442142271524
2022-10-10,4.38442142271524
2022-10-11,4.38442142271524
2022-10-12,4.38442142271524
2022-10-13,4.38442142271524
2022-10-14,4.38442142271524
2022-10-17,4.38442142271524
2022-10-18,4.38442142271524
2022-10-19,4.38442142271524
2022-10-20,4.38442142271524
2022-10-21,4.38442142271524
2022-10-24,4.38442142271524
2022-10-25,4.38442142271524
2022-10-26,4.38442142271524
2022-10-27,4.38442142271524
2022-10-28,4.38442142271524
2022-10-31,4.38442142271524
2022-11-01,4.38442142271524
2022-11-02,4.38442142271524
2022-11-03,4.38442142271524
2022-11-04,4.38442142271524
2022-11-07,4.38442142271524
2022-11-08,4.38442142271524
2022-11-09,4.38442142271524
2022-11-10,4.38442142271524
2022-11-11,4.38442142271524
2022-11-14,4.38442142271524
2022-11-15,4.38442142271524
2022-11-16,4.38442142271524
2022-11-17,4.38442142271524
2022-11-18,4.38442142271524
2022-11-21,4.38442142271524
2022-11-22,4.38442142271524
2022-11-23,4.38442142271524
2022-11-25,4.38442142271524
2022-11-28,4.38442142271524
2022-11-29,4.38442142271524
2022-11-30,4.38442142271524
2022-12-01,4.38442142271524
2022-12-02,4.38442142271524
2022-12-05,4.38442142271524
2022-12-06,4.38442142271524
2022-12-07,4.38442142271524
2022-12-08,4.38442142271524
2022-12-09,4.38442142271524
2022-12-12,4.38442142271524
2022-12-13,4.38442142271524
2022-12-14,4.38442142271524
2022-12-15,4.38442142271524
2022-12-16,4.38442142271524
2022-12-19,4.38442142271524
2022-12-20,4.38442142271524
2022-12-21,4.38442142271524
2022-12-22,4.38442142271524
2022-12-23,4.38442142271524
2022-12-27,4.38442142271524
2022-12-28,4.38442142271524
2022-12-29,4.38442142271524
2022-12-30,4.38442142271524
2023-01-03,4.38442142271524
2023-01-04,4.38442142271524
2023-01-05,4.38442142271524
2023-01-06,4.38442142271524
2023-01-09,4.38442142271524
2023-01-10,4.38442142271524
2023-01-11,4.38442142271524
2023-01-12,4.38442142271524
2023-01-13,4.38442142271524
2023-01-17,4.38442142271524
2023-01-18,4.38442142271524
2023-01-19,4.38442142271524
2023-01-20,4.38442142271524
2023-01-23,4.38442142271524
2023-01-24,4.38442142271524
2023-01-25,4.38442142271524
2023-01-26,4.38442142271524
2023-01-27,4.38442142271524
2023-01-30,4.38442142271524
2023-01-31,4.38442142271524
2023-02-01,4.38442142271524
2023-02-02,4.38442142271524
2023-02-03,4.38442142271524
2023-02-06,4.408715902478969
2023-02-07,4.588275017524655
2023-02-08,4.495392597698885
2023-02-09,4.444544046824226
2023-02-10,4.287285445396895
2023-02-13,4.404446169250271
2023-02-14,4.529679804528148
2023-02-15,4.4806029741369855
2023-02-16,4.344843027398797
2023-02-17,4.285320504043653
2023-02-21,4.1986860694132195
2023-02-22,4.197835038264747
2023-02-23,4.5027705081457015
2023-02-24,4.462942576808507
2023-02-27,4.470268517153733
2023-02-28,4.475610558365728
2023-03-01,4.411075896310939
2023-03-02,4.4832511208564725
2023-03-03,4.614159192315338
2023-03-06,4.5764643136401375
2023-03-07,4.5462995796478545
2023-03-08,4.643418512423981
2023-03-09,4.54342419978026
2023-03-10,4.479510157008383
2023-03-13,4.488720296299137
2023-03-14,4.690263122493516
2023-03-15,4.732083595327374
2023-03-16,4.9174812860356685
2023-03-17,4.875823561143197
2023-03-20,4.908675814451621
2023-03-21,4.968678251528958
2023-03-22,4.981633370148488
2023-03-23,5.087103692387458
2023-03-24,5.055018152576107
2023-03-27,5.0081194187560065
2023-03-28,4.981219709320513
2023-03-29,5.072298673786614
2023-03-30,5.1306562369596485
2023-03-31,5.199032314190983
2023-04-03,5.226245917029715
2023-04-04,5.183098429852878
2023-04-05,5.1015969271874795
2023-04-06,5.148298946649984
2023-04-10,5.19657264626464
2023-04-11,5.147471145057507
2023-04-12,5.077426077094101
2023-04-13,5.11564784798926
2023-04-14,5.154202484887248
2023-04-17,5.16268862703933
2023-04-18,5.22641407175526
2023-04-19,5.2398901253457915
2023-04-20,5.135511953467759
2023-04-21,5.13591363865989
2023-04-24,5.127144437608392
2023-04-25,5.008409870928816
2023-04-26,5.095876035219009
2023-04-27,5.315333365013711
2023-04-28,5.381976805796418
2023-05-01,5.523059139726444
2023-05-02,5.4234837646739535
2023-05-03,5.366012086337374
2023-05-04,5.317728790065647
2023-05-05,5.4306989659971165
2023-05-08,5.483543898553288
2023-05-09,5.423077181878758
2023-05-10,5.45426742175523
2023-05-11,5.439665793517953
2023-05-12,5.4016161304638
2023-05-15,5.499293573587812
2023-05-16,5.526431087606797
2023-05-17,5.652164004110984
2023-05-18,5.838796997322577
2023-05-19,5.7872429548433555
2023-05-22,5.795523302399985
2023-05-23,5.733747647829219
2023-05-24,5.734119819034033
2023-05-25,6.541168653606531
2023-05-26,6.704211187208992
2023-05-30,6.830126106832189
2023-05-31,6.604581948933848
2023-06-01,6.8602828892624075
2023-06-02,6.81359818763954
2023-06-05,6.789168360182391
2023-06-06,6.732917110972455
2023-06-07,6.559821943254381
2023-06-08,6.675323489095691
2023-06-09,6.705148849595195
2023-06-12,6.8201448845289185
2023-06-13,6.984219817741268
2023-06-14,7.205668584599525
2023-06-15,7.2249583826483725
2023-06-16,7.22363151675569
2023-06-20,7.363062834122154
2023-06-21,7.265027969004196
2023-06-22,7.2841423769576625
2023-06-23,7.22335996471347
2023-06-26,6.989950252040478
2023-06-27,7.177259314818061
2023-06-28,7.085738832690055
2023-06-29,7.030017745827971
2023-06-30,7.22169821123598
2023-07-03,7.2271094153462965
2023-07-05,7.271686755773375
2023-07-06,7.233542632047103
2023-07-07,7.266136652898783
2023-07-10,7.255478899609733
2023-07-11,7.306637040283329
2023-07-12,7.536789994628764
2023-07-13,7.782140696695103
2023-07-14,7.698863141690465
2023-07-17,7.81487561715422
2023-07-18,7.933114169030755
2023-07-19,7.9151029504976815
2023-07-20,7.662644506420303
2023-07-21,7.480908257481362
2023-07-24,7.490899232362841
2023-07-25,7.603354047205598
2023-07-26,7.57942948552051
2023-07-27,7.6266461033665784
2023-07-28,7.716229727683354
2023-07-31,7.673405343807879
2023-08-01,7.710675276484073
2023-08-02,7.325426474632948
2023-08-03,7.364668110155037
2023-08-04,7.52253283988215
2023-08-07,7.726701134057115
2023-08-08,7.598323785793671
2023-08-09,7.012820381470624
2023-08-10,7.012820381470624
2023-08-11,7.012820381470624
2023-08-14,7.093265022046335
2023-08-15,7.069284635412551
2023-08-16,7.0399492516168625
2023-08-17,6.938159425659451
2023-08-18,6.927495834401922
2023-08-21,6.959585067820418
2023-08-22,6.993036537628047
2023-08-23,7.038512166443876
2023-08-24,6.959251088888168
2023-08-25,6.979669895337186
2023-08-28,7.014739141277627
2023-08-29,7.082704738524762
2023-08-30,7.139171409078453
2023-08-31,7.129225862218529
2023-09-01,7.132877630395692
2023-09-05,7.066553547291351
2023-09-06,6.985889589913563
2023-09-07,6.997303685132974
2023-09-08,6.980867360150578
2023-09-11,6.9815167816811465
2023-09-12,6.9285928551331475
2023-09-13,6.862228001830897
2023-09-14,6.979847703824842
2023-09-15,6.929411672535595
2023-09-18,6.964238834775094
2023-09-19,6.735073908534899
2023-09-20,6.698861506804577
2023-09-21,6.698861506804577
2023-09-22,6.698861506804577
2023-09-25,6.674123434957853
2023-09-26,6.693562458621689
2023-09-27,6.7196678515626
2023-09-28,6.754045955360949
2023-09-29,6.763184333563852
2023-10-02,6.770191107526384
2023-10-03,6.659330367087811
2023-10-04,6.707955820788876
2023-10-05,6.718529251978742
2023-10-06,6.851413354824966
2023-10-09,6.9299558793039315
2023-10-10,6.949138647932303
2023-10-11,7.0716497683167425
2023-10-12,7.073836005013539
2023-10-13,7.048919053360805
2023-10-16,7.086492089631715
2023-10-17,7.065611146293251
2023-10-18,7.067076207513634
2023-10-19,7.014597312566267
2023-10-20,6.9438103150963215
2023-10-23,6.91112715655395
2023-10-24,6.968968929340177
2023-10-25,6.867220174099365
2023-10-26,6.799658934962446
2023-10-27,6.792851114014083
2023-10-30,6.809258981483596
2023-10-31,6.813361175104298
2023-11-01,6.828717107337107
2023-11-02,6.83555339447965
2023-11-03,6.826508319641269
2023-11-06,6.789096960933829
2023-11-07,6.897953888465914
2023-11-08,6.910298340936068
2023-11-09,6.850866590818842
2023-11-10,6.974958601957721
2023-11-13,7.074595403177037
2023-11-14,7.200859280634532
2023-11-15,7.156812493130545
2023-11-16,7.083799413685065
2023-11-17,7.134720024998369
2023-11-20,7.2597271186223775
2023-11-21,7.029089787415953
2023-11-22,7.022379685158933
2023-11-24,6.960773312420787
2023-11-27,6.9303890799383865
2023-11-28,7.075144161442334
2023-11-29,7.495398253408181
2023-11-30,7.5759719444194396
2023-12-01,7.576752927634558
2023-12-04,7.378901572029361
2023-12-05,7.4074316732660765
2023-12-06,7.415557270488324
2023-12-07,7.42910002436808
2023-12-08,7.472075784848809
2023-12-11,7.598627283755344
2023-12-12,7.640224464374952
2023-12-13,7.665550047568383
2023-12-14,7.703742978397576
2023-12-15,7.805199882935614
2023-12-18,7.79361040383797
2023-12-19,7.786667011548271
2023-12-20,7.635206663304793
2023-12-21,7.735259812810623
2023-12-22,7.717307826157896
2023-12-26,7.771324912281662
2023-12-27,7.826728601620976
2023-12-28,7.798204690197888
2023-12-29,7.704674167456025
2024-01-02,7.404306526894365
2024-01-03,7.3112405277098915
2024-01-04,7.3112405277098915
2024-01-05,7.3112405277098915
2024-01-08,7.5989443025867836
2024-01-09,7.860418818567675
2024-01-10,7.9616827584009595
2024-01-11,7.984129796545226
2024-01-12,7.929125490832764
2024-01-16,8.289014812571786
2024-01-17,8.180845986804123
2024-01-18,8.345220808299151
2024-01-19,8.75412223570823
2024-01-22,8.714391219945293
2024-01-23,8.700469912362605
2024-01-24,9.001211830623507
2024-01-25,8.955369806226372
2024-01-26,8.829439080259048
2024-01-29,8.99489150274664
2024-01-30,8.85448222365753
2024-01-31,8.612234483617558
2024-02-01,8.784597412597378
2024-02-02,9.032549227075453
2024-02-05,8.927542625843738
2024-02-06,8.756644943010016
2024-02-07,9.06374755258002
2024-02-08,9.098670986460945
2024-02-09,9.271616930635364
2024-02-12,9.139948772020286
2024-02-13,9.14700092779201
2024-02-14,9.509222762447056
2024-02-15,9.412692781802617
2024-02-16,9.306367603187113
2024-02-20,9.013070568545524
2024-02-21,8.627970799391708
2024-02-22,9.085574636177078
2024-02-23,8.94649656025219
2024-02-26,8.900036279044297
2024-02-27,8.93052761150776
2024-02-28,8.835860973224465
2024-02-29,9.331384224002173
2024-03-01,9.767512750262737
2024-03-04,9.999767435309348
2024-03-05,10.033669261964581
2024-03-06,10.326220469509568
2024-03-07,10.562345996383915
2024-03-08,10.177878520975575
2024-03-11,9.847760283404323
2024-03-12,10.296585410654128
2024-03-13,10.018946508633535
2024-03-14,9.858288844497746
2024-03-15,9.852449663669578
2024-03-18,10.230985395646627
2024-03-19,10.242479360804342
2024-03-20,10.521324794872765
2024-03-21,10.688263010254891
2024-03-22,10.79071949995432
2024-03-25,10.936989339112515
2024-03-26,10.685449339193786
2024-03-27,10.384579844695878
2024-03-28,10.418576249317786
2024-04-01,10.412688414454028
2024-04-02,10.408427173225375
2024-04-03,10.627865644775245
2024-04-04,10.454662804774417
2024-04-05,10.727333805776498
2024-04-08,10.93466551369753
2024-04-09,10.781053687439565
2024-04-10,10.766947789650974
2024-04-11,10.915843244556115
2024-04-12,10.706606258929432
2024-04-15,10.333681702525233
2024-04-16,10.412009333287891
2024-04-17,10.18401143470858
2024-04-18,9.929740332338955
2024-04-19,9.82946672171775
2024-04-22,9.891396376146277
2024-04-23,9.953958205367986
2024-04-24,9.986399751423928
2024-04-25,9.886937328685946
2024-04-26,10.388865802373232
2024-04-29,10.2053011485819
2024-04-30,10.100285077076554
2024-05-01,10.132132721915607
2024-05-02,10.22160665003881
2024-05-03,10.239828651311601
2024-05-06,10.266755678980987
2024-05-07,10.3665346477711
2024-05-08,10.308088175630417
2024-05-09,10.323939612747097
2024-05-10,10.282758169742396
2024-05-13,10.300170448421945
2024-05-14,10.335503948931082
2024-05-15,10.400777032150346
2024-05-16,10.45178502841207
2024-05-17,10.511022002954698
2024-05-20,10.543146536499155
2024-05-21,10.574967780067762
2024-05-22,10.527301103141165
2024-05-23,10.435924877011058
2024-05-24,10.478860841513175
2024-05-28,10.527934379741467
2024-05-29,10.510205828924194
2024-05-30,10.38936574390969
2024-05-31,10.401876865247537
2024-06-03,10.419792573323651
2024-06-04,10.440849224360472
2024-06-05,10.497205229630211
2024-06-06,10.53838816887939
2024-06-07,10.464435209292109
2024-06-10,10.49026923797387
2024-06-11,10.540537715865952
2024-06-12,10.580795244450863
2024-06-13,10.494395717038655
2024-06-14,10.546086472322568
2024-06-17,10.559726943598113
2024-06-18,10.488705941619848
2024-06-20,10.527866933023592
2024-06-21,10.621169263175595
2024-06-24,10.622989950244616
2024-06-25,10.775211652188064
2024-06-26,10.769508404602167
2024-06-27,10.817398120287857
2024-06-28,10.711176136235771
2024-07-01,10.741442399481194
2024-07-02,10.810745360924642
2024-07-03,10.832291909550612
2024-07-05,10.980566321143487
2024-07-08,10.932196363385977
2024-07-09,10.930768611884346
2024-07-10,11.000851103363416
2024-07-11,10.826887667965202
2024-07-12,10.810715189229914
2024-07-15,10.85622789468817
2024-07-16,10.772196167847909
2024-07-17,10.674981267671225
2024-07-18,10.674981267671225
2024-07-19,10.674981267671225
2024-07-22,10.71139923759176
2024-07-23,10.687625289247656
2024-07-24,10.13979313903565
2024-07-25,10.077064289707447
2024-07-26,10.077064289707447
2024-07-29,10.021348369056428
2024-07-30,9.962253533516197
2024-07-31,10.003678667326536
2024-08-01,9.952711577326735
2024-08-02,9.774073570057617
2024-08-05,9.642847555343518
2024-08-06,9.650653483301392
2024-08-07,9.551245728110846
2024-08-08,9.601731913044816
2024-08-09,9.540449800662051
2024-08-12,9.452948926922858
2024-08-13,9.564013213873467
2024-08-14,9.617187206336911
2024-08-15,9.64088256229134
2024-08-16,9.690904128123513
2024-08-19,9.745291409739721
2024-08-20,9.740626020736727
2024-08-21,9.770036973087588
2024-08-22,9.74560486775178
2024-08-23,9.760603795956726
2024-08-26,9.694902323328357
2024-08-27,9.695384335202514
2024-08-28,9.707074091755725
2024-08-29,9.785792354100312
2024-08-30,9.80934682838571
2024-09-03,9.755097767575695
2024-09-04,9.652481580774413
2024-09-05,9.641050688735744
2024-09-06,9.639463149809314
2024-09-09,9.685152278097888
2024-09-10,9.79901377074017
2024-09-11,9.827388207404429
2024-09-12,9.885028890607977
2024-09-13,9.855174942007018
2024-09-16,9.86605176188661
2024-09-17,9.834869733100769
2024-09-18,9.804860043547986
2024-09-19,9.837092304682418
2024-09-20,9.792336906916955
2024-09-23,9.802704270610434
2024-09-24,9.800039036693052
2024-09-25,9.735274954719443
2024-09-26,9.689372358695755
2024-09-27,9.707640272103195
2024-09-30,9.83055708828558
2024-10-01,9.837562735006635
2024-10-02,9.89018815413715
2024-10-03,10.019772824821532
2024-10-04,10.200850108828526
2024-10-07,10.206744900851632
2024-10-08,10.3670527793914
2024-10-09,10.392677444143668
2024-10-10,10.400297834949523
2024-10-11,10.491369447493906
2024-10-14,10.429960469978163
2024-10-15,10.398005742942956
2024-10-16,10.467340140456233
2024-10-17,10.416574224199476
2024-10-18,10.480441815277892
2024-10-21,10.98471514991408
2024-10-22,11.048447528774766
2024-10-23,11.03574557482617
2024-10-24,11.070218555523681
2024-10-25,11.17723141714951
2024-10-28,11.34266760754636
2024-10-29,11.551015180619096
2024-10-30,11.535320265979902
2024-10-31,11.46640753444866
2024-11-01,11.26579228799837
2024-11-04,11.108370998499698
2024-11-05,11.35126086638505
2024-11-06,11.526461536690864
2024-11-07,14.689380359010144
2024-11-08,16.29935976943307
2024-11-11,16.178031709271245
2024-11-12,16.190961965650974
2024-11-13,15.920620320663467
2024-11-14,15.94076471690504
2024-11-15,16.191620272312925
2024-11-18,16.16517018187721
2024-11-19,17.18244039721764
2024-11-20,17.26768626356052
2024-11-21,16.942358233689077
2024-11-22,17.751312317953595
2024-11-25,17.25353325805779
2024-11-26,17.726552585001787
2024-11-27,17.705048786417947
2024-11-29,18.09769284630038
2024-12-02,18.18914447487756
2024-12-03,19.536807006806363
2024-12-04,19.72089354111205
2024-12-05,20.08455009699088
2024-12-06,21.29014401987067
2024-12-09,18.73969120609767
2024-12-10,18.615683466023697
2024-12-11,18.743640738996135
2024-12-12,18.79814055678745
2024-12-13,19.024830126080378
2024-12-16,19.47050721429948
2024-12-17,19.724729909795556
2024-12-18,18.644038825449194
2024-12-19,18.772258455480696
2024-12-20,18.9133180255621
2024-12-23,19.01759641871581
2024-12-24,19.335003520640953
2024-12-26,19.2958919481648
2024-12-27,18.878672651185383
2024-12-30,18.563993979502442
2024-12-31,18.339946330795442
2025-01-02,18.56637772112051
2025-01-03,19.32561023575535
2025-01-06,19.081740846857095
2025-01-07,18.379884021611367
2025-01-08,18.511794132691833
2025-01-10,18.188298982459003
2025-01-13,18.36641392592572
2025-01-14,18.358549528930723
2025-01-15,18.49324710301019
2025-01-16,18.65483954451806
2025-01-17,19.422334886044347
2025-01-21,19.39867597360208
2025-01-22,19.531101123239537
2025-01-23,19.589639456768964
2025-01-24,19.508608245788324
2025-01-27,17.986708784182888
2025-01-28,17.986708784182888
2025-01-29,17.986708784182888
2025-01-30,17.986708784182888
2025-01-31,17.986708784182888
2025-02-03,18.34133578532338
2025-02-04,19.65731414805027
2025-02-05,19.36618168510691
2025-02-06,20.080120128909574
2025-02-07,19.99353251652011
2025-02-10,20.42944343026678
2025-02-11,20.086888074991908
2025-02-12,20.419074910835015
2025-02-13,21.610237751024407
2025-02-14,22.16960306252455
2025-02-18,22.296287593298263
2025-02-19,21.568132768764542
2025-02-20,20.24216313252876
2025-02-21,20.24216313252876
2025-02-24,20.18346798455928
2025-02-25,20.085050865809514
2025-02-26,20.100082342227736
2025-02-27,20.020184467563794
2025-02-28,20.045360250720925
2025-03-03,20.09570905273196
2025-03-04,19.893108421675635
2025-03-05,19.864288036033187
2025-03-06,19.891998808568374
2025-03-07,19.955273396642177
2025-03-10,19.936337203694702
2025-03-11,19.936337203694702
2025-03-12,19.936337203694702
2025-03-13,19.936337203694702
2025-03-14,19.936337203694702
2025-03-17,19.936337203694702
2025-03-18,19.936337203694702
2025-03-19,19.936337203694702
2025-03-20,19.936337203694702
2025-03-21,19.936337203694702
2025-03-24,19.936337203694702
2025-03-25,19.936337203694702
2025-03-26,19.936337203694702
2025-03-27,19.936337203694702
2025-03-28,19.936337203694702
2025-03-31,19.936337203694702
2025-04-01,19.936337203694702
2025-04-02,19.936337203694702
2025-04-03,19.936337203694702
2025-04-04,19.936337203694702
2025-04-07,19.936337203694702
2025-04-08,19.936337203694702
2025-04-09,19.936337203694702
2025-04-10,19.936337203694702
2025-04-11,19.936337203694702
2025-04-14,19.936337203694702
2025-04-15,19.936337203694702
2025-04-16,19.936337203694702
2025-04-17,19.936337203694702
2025-04-21,19.936337203694702
2025-04-22,19.936337203694702
2025-04-23,19.936337203694702
2025-04-24,19.936337203694702
2025-04-25,19.936337203694702
2025-04-28,19.936337203694702
2025-04-29,19.936337203694702
2025-04-30,19.936337203694702
2025-05-01,19.936337203694702
2025-05-02,19.936337203694702
2025-05-05,19.936337203694702
2025-05-06,19.936337203694702
2025-05-07,19.936337203694702
2025-05-08,19.936337203694702
2025-05-09,19.936337203694702
2025-05-12,19.936337203694702
2025-05-13,19.936337203694702
2025-05-14,19.936337203694702
2025-05-15,19.936337203694702
2025-05-16,19.936337203694702
2025-05-19,20.080250201946292
2025-05-20,20.024432615287644
2025-05-21,19.712119309292667
2025-05-22,19.864437854325622
2025-05-23,19.565825249630553
2025-05-27,19.755512620790338
2025-05-28,19.76781772442338
2025-05-29,19.63251083491113
2025-05-30,20.45754493655599
2025-06-02,20.59506172459976
2025-06-03,20.719530314229885
2025-06-04,20.357385159739778
2025-06-05,19.580240418884067
2025-06-06,19.641903853571307
2025-06-09,19.573830671411827
2025-06-10,19.63401097717562
2025-06-11,19.915920179787975
2025-06-12,19.753002505231713
2025-06-13,19.551359358470968
2025-06-16,20.017399261369466
2025-06-17,19.52032012685919
2025-06-18,19.488191650066824
2025-06-20,19.27558397846333
2025-06-23,19.70456739810853
2025-06-24,19.914234129192256
2025-06-25,19.984470770673177
2025-06-26,20.14369867934616
2025-06-27,19.10422410129184
2025-06-30,19.512343609105983
2025-07-01,18.87985388720743
2025-07-02,19.050117087219206
2025-07-03,19.378465389472886
2025-07-07,19.777584647037937
2025-07-08,19.742128039329373
2025-07-09,20.126913739006817
2025-07-10,19.518841990971367
2025-07-11,19.36511821101928
2025-07-14,19.922674075160366
2025-07-15,20.075338684361697
2025-07-16,20.48282453206008
2025-07-17,20.98899346617869
2025-07-18,20.836263402172815
2025-07-21,20.631331955198167
2025-07-22,20.22443259711293
2025-07-23,20.801094354181487
2025-07-24,20.85193259366956
2025-07-25,21.24676429050967
2025-07-28,21.263617422569112
2025-07-29,21.211755323199448
2025-07-30,21.422820672702464
2025-07-31,21.512667152306143
2025-08-01,20.860264183691648
2025-08-04,21.654026032707346
2025-08-05,22.771493575009984
2025-08-06,23.29916059677752
2025-08-07,23.266085066261972
2025-08-08,23.669574493321328
2025-08-11,23.419265107230807
2025-08-12,23.80333562356273
2025-08-13,23.25770739895065
2025-08-14,23.01717198256849
2025-08-15,22.825312009104437
2025-08-18,22.601910099368023
2025-08-19,21.674572049922528
2025-08-20,21.674572049922528
2025-08-21,21.674572049922528
2025-08-22,21.674572049922528
2025-08-25,21.913120041982822
2025-08-26,22.39679957791348
2025-08-27,22.16560289864206
2025-08-28,22.804852081475556
2025-08-29,22.65782805347554
2025-09-02,22.562641496078417
2025-09-03,22.791825485505505
2025-09-04,23.48203983862171
2025-09-05,23.371136575693278
2025-09-08,24.72297971657224
2025-09-09,24.78287639625988
2025-09-10,24.907690419526986
2025-09-11,25.228721497659876
2025-09-12,25.36479486592942
2025-09-15,25.986243372074973
2025-09-16,26.196264513254444
2025-09-17,26.31747544910197
2025-09-18,27.009698373660086
2025-09-19,27.792223359124304
2025-09-22,27.93645380153962
2025-09-23,27.572648875685267
2025-09-24,27.259262030772007
2025-09-25,26.800685389897524
2025-09-26,27.537857449260144
2025-09-29,28.571122727221415
2025-09-30,28.425527850623645
2025-10-01,28.834936141567134
2025-10-02,28.76694599193813
2025-10-03,28.594833580758444
2025-10-06,27.702063396382712
2025-10-07,27.887728556551522
2025-10-08,27.97095873476943
2025-10-09,28.089400365625522
2025-10-10,27.631638048834617
2025-10-13,27.66637766421497
2025-10-14,27.262261475316443
2025-10-15,29.036719516403295
2025-10-16,28.683799570603476
2025-10-17,28.64528486702917
2025-10-20,29.4639000912559
2025-10-21,29.31143624110745
2025-10-22,28.437514116602706
2025-10-23,29.133350710716854
2025-10-24,30.297642381158994
2025-10-27,31.124839846547772
2025-10-28,31.657628264010526
2025-10-29,31.993657583886055
2025-10-30,31.02001847473305
2025-10-31,31.04597476581511
2025-11-03,31.110777929039642
2025-11-04,29.71728491871165
2025-11-05,30.54377792991187
2025-11-06,29.009015481409122
2025-11-07,28.887959359761307
2025-11-10,29.304214556536078
2025-11-11,28.405372326919856
2025-11-12,28.63130240182468
2025-11-13,27.637513281958853
2025-11-14,28.218138122896388
2025-11-17,27.725214334576357
2025-11-18,26.89969359936383
2025-11-19,26.281155421683806
2025-11-20,26.11777859697273
2025-11-21,26.11777859697273
2025-11-24,26.294770913252847
2025-11-25,26.619301123884647
2025-11-26,26.522747733795622
2025-11-28,26.489552468291848
2025-12-01,26.119783430558968
2025-12-02,26.06932743737416
2025-12-03,25.991818803789435
2025-12-04,25.94215205737088
2025-12-05,25.980557319081665
2025-12-08,25.747749792983974
2025-12-09,25.818308978787286
2025-12-10,25.884039033425022
2025-12-11,25.72065920085964
2025-12-12,25.65472007626706
2025-12-15,25.579572960839933
2025-12-16,25.485662318230325
2025-12-17,25.12232470544872
2025-12-18,25.249869999780426
2025-12-19,25.32083705343773
2025-12-22,25.35850464626404
2025-12-23,25.37354796437477
2025-12-24,25.865438915660857
2025-12-26,25.805882975854633
2025-12-29,26.27972069259837
2025-12-30,26.124599182778674
2025-12-31,25.719937547347193
2026-01-02,27.389572145494988
2026-01-05,27.615994008625766
2026-01-06,29.339390216766127
2026-01-07,29.068065164701846
2026-01-08,28.23438424075413
2026-01-09,29.541803133542096
2026-01-12,29.725454958240764
2026-01-13,29.311758072244242
2026-01-14,29.01929221570934
2026-01-15,29.589328346732554
2026-01-16,30.983764794698942
2026-01-20,30.87310344025871
2026-01-21,32.15267710112013
2026-01-22,32.38484441736091
2026-01-23,32.567578200570985
2026-01-26,32.01079936957299
2026-01-27,33.30644426286811
2026-01-28,34.556353755373934
2026-01-29,34.691743040232275
2026-01-30,33.26641735484019
2026-02-02,34.468593683305215
2026-02-03,33.38708156205118
2026-02-04,30.88357788644333
2026-02-05,30.88357788644333
2026-02-06,30.88357788644333
2026-02-09,30.94967132139644
2026-02-10,30.651770680227994
2026-02-11,31.69091293134647
2026-02-12,31.635408447910685
2026-02-13,31.731507038998895
2026-02-17,31.4922503811629
2026-02-18,32.07365763808876
2026-02-19,31.90961626972142
2026-02-20,32.382928023581215
2026-02-23,32.14756047149882
2026-02-24,32.154281660656494
2026-02-25,32.55349808826085
2026-02-26,31.929952806322227
2026-02-27,31.69061534779208
2026-03-02,31.59926628706862
2026-03-03,30.552332858063302
2026-03-04,30.980065256180268
2026-03-05,30.90461923664808
2026-03-06,30.362093965938293
2026-03-09,30.897273615836497
2026-03-10,30.868132555097475
2026-03-11,31.08139004012318
2026-03-12,30.22946755936566
2026-03-13,30.0703182215967
2026-03-16,29.791318378437108
2026-03-17,30.087964517895934
2026-03-18,29.49993984278713
2026-03-19,29.205625891445127
2026-03-20,28.84540381245538
2026-03-23,28.90018711277222
2026-03-24,28.90018711277222
2026-03-25,28.90018711277222
2026-03-26,28.90018711277222
2026-03-27,28.90018711277222
2026-03-30,28.90018711277222
2026-03-31,28.90018711277222
2026-04-01,28.90018711277222
2026-04-02,28.90018711277222
2026-04-06,28.90018711277222
2026-04-07,28.90018711277222
2026-04-08,28.90018711277222
2026-04-09,28.90018711277222
2026-04-10,28.90018711277222
2026-04-13,29.745231029550887
2026-04-14,29.7081409680649
2026-04-15,30.056352675595825
2026-04-16,30.74691238237507
2026-04-17,31.449572198134607
2026-04-20,31.704993867202674
2026-04-21,32.22092972811015
2026-04-22,32.65905524396889
2026-04-23,33.926090604406845
2026-04-24,37.44960333300545
2026-04-27,37.34076307061413
2026-04-28,36.677860131632876
2026-04-29,39.42656754403792
2026-04-30,40.31774747222005
2026-05-01,41.49000310997112
2026-05-04,40.45419770500874
2026-05-05,43.89478613352806
2026-05-06,45.40222026033058
2026-05-07,43.264685937349974
2026-05-08,47.94541736445352
2026-05-11,49.07476421895406
2026-05-12,46.317866067575196
2026-05-13,47.73887455310312
2026-05-14,47.240413140936624
2026-05-15,44.9636286103966
2026-05-18,43.627808956938196
2026-05-19,44.0762210829413
2026-05-20,47.02322627175366
2026-05-21,47.56219908669878
2026-05-22,49.13858202525449
2026-05-26,52.39222012108027
2026-05-27,50.5695362789146
