Date,Value
2018-01-02,1.0
2018-01-03,1.0
2018-01-04,1.0
2018-01-05,1.0
2018-01-08,1.0243276923826676
2018-01-09,1.02299762261486
2018-01-10,1.0227147207082186
2018-01-11,1.0309464810812712
2018-01-12,1.0410748266118746
2018-01-16,1.0380035739363198
2018-01-17,1.0424811164361643
2018-01-18,1.0446601861317957
2018-01-19,1.0498869213610162
2018-01-22,1.0662194122718458
2018-01-23,1.0770557183643341
2018-01-24,1.0711332482546871
2018-01-25,1.0772069992641966
2018-01-26,1.1205685792638624
2018-01-29,1.1251686938646923
2018-01-30,1.1156666769955987
2018-01-31,1.1244324392683258
2018-02-01,1.1107068292027824
2018-02-02,1.0848964544880473
2018-02-05,1.0755838533118136
2018-02-06,1.0755838533118136
2018-02-07,1.0755838533118136
2018-02-08,1.0755838533118136
2018-02-09,1.0755838533118136
2018-02-12,1.091898981643634
2018-02-13,1.088140294132462
2018-02-14,1.1214635004874294
2018-02-15,1.1375323470456387
2018-02-16,1.1347500953127734
2018-02-20,1.146231424984098
2018-02-21,1.1273403351141258
2018-02-22,1.127039070115217
2018-02-23,1.1414966905647421
2018-02-26,1.1486816117827092
2018-02-27,1.1479270496777985
2018-02-28,1.1499476779108144
2018-03-01,1.1459259598786884
2018-03-02,1.1570762819955736
2018-03-05,1.1774926278654698
2018-03-06,1.1932332293405736
2018-03-07,1.1936358357276404
2018-03-08,1.1973338668988203
2018-03-09,1.21654993060376
2018-03-12,1.2035334254967802
2018-03-13,1.1915814810280851
2018-03-14,1.1996564527441922
2018-03-15,1.2016956719522929
2018-03-16,1.1984658528561059
2018-03-19,1.1896762546083537
2018-03-20,1.21029779330156
2018-03-21,1.2011191425125927
2018-03-22,1.1820749503793524
2018-03-23,1.171290257758746
2018-03-26,1.1753286362190956
2018-03-27,1.162643362747528
2018-03-28,1.1595732812645412
2018-03-29,1.1595732812645412
2018-04-02,1.1383753557569798
2018-04-03,1.1451893621610676
2018-04-04,1.1530343469083557
2018-04-05,1.1645682154899037
2018-04-06,1.160444375857173
2018-04-09,1.1497056904072513
2018-04-10,1.1550153149259823
2018-04-11,1.1541001040475753
2018-04-12,1.1641216309419828
2018-04-13,1.155296434650342
2018-04-16,1.1611884014168696
2018-04-17,1.1719580608741258
2018-04-18,1.1727970040336881
2018-04-19,1.167474346086543
2018-04-20,1.164410451421599
2018-04-23,1.1648118899668891
2018-04-24,1.15341099595581
2018-04-25,1.1492945388757192
2018-04-26,1.1543849080311257
2018-04-27,1.1523874370352847
2018-04-30,1.149473132281011
2018-05-01,1.155001686147539
2018-05-02,1.156852555753456
2018-05-03,1.1520217002542965
2018-05-04,1.1567608289297062
2018-05-07,1.1653752790035712
2018-05-08,1.1692164876522806
2018-05-09,1.1798052815593203
2018-05-10,1.1788419467896447
2018-05-11,1.171952313342178
2018-05-14,1.1681429765630578
2018-05-15,1.1669647836334007
2018-05-16,1.1650326906802584
2018-05-17,1.1644148724412935
2018-05-18,1.1658569928588478
2018-05-21,1.1758488202389925
2018-05-22,1.171292259713327
2018-05-23,1.179348486661562
2018-05-24,1.1829998277672833
2018-05-25,1.1845136438330306
2018-05-29,1.1826889098075357
2018-05-30,1.1878078879389304
2018-05-31,1.186123409052804
2018-06-01,1.190064380234783
2018-06-04,1.181208804533328
2018-06-05,1.1868642070307311
2018-06-06,1.186755033878822
2018-06-07,1.1855813669652013
2018-06-08,1.184615162358566
2018-06-11,1.2057907301521897
2018-06-12,1.2122143164947285
2018-06-13,1.2316218281289952
2018-06-14,1.232354246685683
2018-06-15,1.2344220080557693
2018-06-18,1.2658188748055932
2018-06-19,1.2514692368415063
2018-06-20,1.2476356448791308
2018-06-21,1.2101552274803473
2018-06-22,1.2133467621955445
2018-06-25,1.1889785612325938
2018-06-26,1.1889785612325938
2018-06-27,1.1889785612325938
2018-06-28,1.1889785612325938
2018-06-29,1.1889785612325938
2018-07-02,1.175015911144526
2018-07-03,1.1691087845526065
2018-07-05,1.175177854600991
2018-07-06,1.1827815190817002
2018-07-09,1.1867852200105369
2018-07-10,1.1820778956473128
2018-07-11,1.1744594217859752
2018-07-12,1.180790583466675
2018-07-13,1.1568383557589075
2018-07-16,1.1714606076953673
2018-07-17,1.1668182148488435
2018-07-18,1.166107666901807
2018-07-19,1.1611338990341329
2018-07-20,1.1536733488749946
2018-07-23,1.1434018646815702
2018-07-24,1.1110826109238623
2018-07-25,1.1243114550027364
2018-07-26,1.2041098009845137
2018-07-27,1.2111642252116437
2018-07-30,1.213651370625839
2018-07-31,1.1749273884129101
2018-08-01,1.1802563624925206
2018-08-02,1.1912696523868418
2018-08-03,1.1806116364660388
2018-08-06,1.2087560848328311
2018-08-07,1.2151955684500504
2018-08-08,1.1937494188858178
2018-08-09,1.1766966747264314
2018-08-10,1.1752755788323581
2018-08-13,1.192754077920605
2018-08-14,1.2126604347523544
2018-08-15,1.1970757087599018
2018-08-16,1.186975887775704
2018-08-17,1.2079169237071847
2018-08-20,1.2173294288375835
2018-08-21,1.232172502039289
2018-08-22,1.2613352040296
2018-08-23,1.3247713017839815
2018-08-24,1.4002706898980675
2018-08-27,1.450351327223764
2018-08-28,1.420178855069461
2018-08-29,1.4205692698912884
2018-08-30,1.4071398101579868
2018-08-31,1.4209596251441776
2018-09-04,1.4313865037926021
2018-09-05,1.4241234392070137
2018-09-06,1.4598460258309078
2018-09-07,1.4654922942254238
2018-09-10,1.4910565201588177
2018-09-11,1.5002945755354915
2018-09-12,1.4664903033726904
2018-09-13,1.4607124737681239
2018-09-14,1.4668806586255794
2018-09-17,1.4715532998450809
2018-09-18,1.4812231815773513
2018-09-19,1.4685138290437312
2018-09-20,1.4617640591585523
2018-09-21,1.4530405390212877
2018-09-24,1.4788687729865275
2018-09-25,1.4921473765999669
2018-09-26,1.4825941026209524
2018-09-27,1.463958505015699
2018-09-28,1.4534871938715044
2018-10-01,1.438621089647841
2018-10-02,1.3978922939347675
2018-10-03,1.3978922939347675
2018-10-04,1.3978922939347675
2018-10-05,1.3978922939347675
2018-10-08,1.3974286050081517
2018-10-09,1.4020851922116182
2018-10-10,1.3785268532133448
2018-10-11,1.3785268532133448
2018-10-12,1.3785268532133448
2018-10-15,1.3808500822650236
2018-10-16,1.3873306047382508
2018-10-17,1.3952174083501994
2018-10-18,1.3924050118100741
2018-10-19,1.3925272707045935
2018-10-22,1.3932785262879568
2018-10-23,1.3950914489906001
2018-10-24,1.3896467570162971
2018-10-25,1.4009498864962149
2018-10-26,1.3946493130318385
2018-10-29,1.4004196985365263
2018-10-30,1.4004196985365263
2018-10-31,1.4004196985365263
2018-11-01,1.4004196985365263
2018-11-02,1.4004196985365263
2018-11-05,1.4004196985365263
2018-11-06,1.4004196985365263
2018-11-07,1.4004196985365263
2018-11-08,1.4004196985365263
2018-11-09,1.4004196985365263
2018-11-12,1.4004196985365263
2018-11-13,1.4004196985365263
2018-11-14,1.4004196985365263
2018-11-15,1.4004196985365263
2018-11-16,1.4004196985365263
2018-11-19,1.4004196985365263
2018-11-20,1.4004196985365263
2018-11-21,1.4004196985365263
2018-11-23,1.4004196985365263
2018-11-26,1.4004196985365263
2018-11-27,1.4004196985365263
2018-11-28,1.4004196985365263
2018-11-29,1.4004196985365263
2018-11-30,1.4004196985365263
2018-12-03,1.4004196985365263
2018-12-04,1.4004196985365263
2018-12-06,1.4004196985365263
2018-12-07,1.4004196985365263
2018-12-10,1.4004196985365263
2018-12-11,1.4004196985365263
2018-12-12,1.4004196985365263
2018-12-13,1.4004196985365263
2018-12-14,1.4004196985365263
2018-12-17,1.4004196985365263
2018-12-18,1.4004196985365263
2018-12-19,1.4004196985365263
2018-12-20,1.4004196985365263
2018-12-21,1.4004196985365263
2018-12-24,1.4004196985365263
2018-12-26,1.4004196985365263
2018-12-27,1.4004196985365263
2018-12-28,1.4004196985365263
2018-12-31,1.4004196985365263
2019-01-02,1.4004196985365263
2019-01-03,1.4004196985365263
2019-01-04,1.4004196985365263
2019-01-07,1.4004196985365263
2019-01-08,1.4004196985365263
2019-01-09,1.4004196985365263
2019-01-10,1.4004196985365263
2019-01-11,1.4004196985365263
2019-01-14,1.4004196985365263
2019-01-15,1.4004196985365263
2019-01-16,1.4004196985365263
2019-01-17,1.4004196985365263
2019-01-18,1.4004196985365263
2019-01-22,1.4004196985365263
2019-01-23,1.4004196985365263
2019-01-24,1.4004196985365263
2019-01-25,1.4004196985365263
2019-01-28,1.4004196985365263
2019-01-29,1.4004196985365263
2019-01-30,1.4004196985365263
2019-01-31,1.4004196985365263
2019-02-01,1.4004196985365263
2019-02-04,1.4004196985365263
2019-02-05,1.4004196985365263
2019-02-06,1.4004196985365263
2019-02-07,1.4004196985365263
2019-02-08,1.4004196985365263
2019-02-11,1.4004196985365263
2019-02-12,1.4004196985365263
2019-02-13,1.4004196985365263
2019-02-14,1.4004196985365263
2019-02-15,1.4004196985365263
2019-02-19,1.3953314758121107
2019-02-20,1.4059622203145838
2019-02-21,1.4111156339853501
2019-02-22,1.4342838663942818
2019-02-25,1.447680090067567
2019-02-26,1.3837028547397685
2019-02-27,1.3784396747309584
2019-02-28,1.3741444349417788
2019-03-01,1.3766982736995756
2019-03-04,1.3512949197704667
2019-03-05,1.3261361830800915
2019-03-06,1.3345545729024728
2019-03-07,1.3449068919265255
2019-03-08,1.3603784991265755
2019-03-11,1.3922317850931472
2019-03-12,1.3957584154803166
2019-03-13,1.4088410359971244
2019-03-14,1.4331860471044566
2019-03-15,1.4360300912692696
2019-03-18,1.465784365806876
2019-03-19,1.476910735949752
2019-03-20,1.4973607173657744
2019-03-21,1.580384701020487
2019-03-22,1.526360871331407
2019-03-25,1.5379548261929439
2019-03-26,1.5709313570375256
2019-03-27,1.5354565081447435
2019-03-28,1.5502963052700243
2019-03-29,1.5531950849943679
2019-04-01,1.5557542854917132
2019-04-02,1.5411910952526582
2019-04-03,1.5331272573237156
2019-04-04,1.4216866328525168
2019-04-05,1.4216866328525168
2019-04-08,1.4073889263144879
2019-04-09,1.3936686275186507
2019-04-10,1.4465099308366824
2019-04-11,1.446204292306636
2019-04-12,1.4429459018707202
2019-04-15,1.440500835035218
2019-04-16,1.4203071279949864
2019-04-17,1.3780361236310024
2019-04-18,1.3631376682942018
2019-04-22,1.39368287054899
2019-04-23,1.4287811771570706
2019-04-24,1.441854993362965
2019-04-25,1.4071010135357551
2019-04-26,1.4258723341916117
2019-04-29,1.4263404603818004
2019-04-30,1.415351301974833
2019-05-01,1.397070545953281
2019-05-02,1.440273395158533
2019-05-03,1.456780505198926
2019-05-06,1.4281352028821335
2019-05-07,1.3775692262732186
2019-05-08,1.371969617934748
2019-05-09,1.3655214338489134
2019-05-10,1.3829994245681032
2019-05-13,1.3683511070406482
2019-05-14,1.399743053487496
2019-05-15,1.4072974757976136
2019-05-16,1.390027535395804
2019-05-17,1.3766958777395544
2019-05-20,1.3721387306695516
2019-05-21,1.368982847279577
2019-05-22,1.3659164990386707
2019-05-23,1.3621462057228149
2019-05-24,1.3710050504305795
2019-05-28,1.378191653642773
2019-05-29,1.3485770161841857
2019-05-30,1.3515256050014357
2019-05-31,1.346630210004209
2019-06-03,1.34478419351723
2019-06-04,1.34478419351723
2019-06-05,1.34478419351723
2019-06-06,1.34478419351723
2019-06-07,1.34478419351723
2019-06-10,1.3398915655313615
2019-06-11,1.3017773742204781
2019-06-12,1.3092375314055091
2019-06-13,1.3023863632572752
2019-06-14,1.2982974250147044
2019-06-17,1.2778762665507744
2019-06-18,1.300536276707839
2019-06-19,1.3511964149394786
2019-06-20,1.3430686539932015
2019-06-21,1.3214525290626984
2019-06-24,1.2921415037873547
2019-06-25,1.2692907638549733
2019-06-26,1.291531207835661
2019-06-27,1.3087360818595415
2019-06-28,1.3009729265166454
2019-07-01,1.3099561505126447
2019-07-02,1.3264538021107768
2019-07-03,1.328351473755185
2019-07-05,1.3356945819452966
2019-07-08,1.3626830543107185
2019-07-09,1.3880805397825038
2019-07-10,1.3951205401127997
2019-07-11,1.3711789840860615
2019-07-12,1.3636147842205268
2019-07-15,1.418485404193354
2019-07-16,1.3928949770390275
2019-07-17,1.4047061238740168
2019-07-18,1.4046568779863347
2019-07-19,1.3919023246708213
2019-07-22,1.4103066547275454
2019-07-23,1.4129375061169545
2019-07-24,1.4245480066228235
2019-07-25,1.4234248782538008
2019-07-26,1.4376512957700176
2019-07-29,1.3901218806565048
2019-07-30,1.3866683852770496
2019-07-31,1.3544436504553918
2019-08-01,1.4050109350742517
2019-08-02,1.385222839549261
2019-08-05,1.3591096402627105
2019-08-06,1.3892099196820085
2019-08-07,1.4086512381974736
2019-08-08,1.447892961279759
2019-08-09,1.4741119623033874
2019-08-12,1.4622190279466591
2019-08-13,1.4737424873872256
2019-08-14,1.4322929170570862
2019-08-15,1.4307516021118651
2019-08-16,1.45078673594121
2019-08-19,1.457933222741414
2019-08-20,1.4825151397414467
2019-08-21,1.516942985259223
2019-08-22,1.5147757930580952
2019-08-23,1.4959257760554878
2019-08-26,1.5307711697789077
2019-08-27,1.5530302908257017
2019-08-28,1.530312945547424
2019-08-29,1.5259179557670937
2019-08-30,1.5082506532039148
2019-09-03,1.5058177626216107
2019-09-04,1.500189643697845
2019-09-05,1.513589676076228
2019-09-06,1.487133809902744
2019-09-09,1.453729871060605
2019-09-10,1.4572404681740612
2019-09-11,1.471957788648074
2019-09-12,1.471417578974013
2019-09-13,1.4722278142677312
2019-09-16,1.4794196447792878
2019-09-17,1.4956510464958355
2019-09-18,1.5171753676087838
2019-09-19,1.5045367010929864
2019-09-20,1.4871899760257168
2019-09-23,1.5033319241048932
2019-09-24,1.4833179660364413
2019-09-25,1.5163388437640934
2019-09-26,1.5112616799705065
2019-09-27,1.4764210880333433
2019-09-30,1.4834025030217137
2019-10-01,1.4765529575696004
2019-10-02,1.4568105519281638
2019-10-03,1.4678705281336533
2019-10-04,1.4950254596705714
2019-10-07,1.4929098294739833
2019-10-08,1.4537277012416825
2019-10-09,1.4769972707058807
2019-10-10,1.479006809202753
2019-10-11,1.4968181921810209
2019-10-14,1.4895293890828913
2019-10-15,1.5162896891456763
2019-10-16,1.4902182168205766
2019-10-17,1.5015489791485317
2019-10-18,1.4887548763402372
2019-10-21,1.5175647537229522
2019-10-22,1.5060553156441803
2019-10-23,1.4831592729030516
2019-10-24,1.5845590272508805
2019-10-25,1.5976171096594989
2019-10-28,1.6394074602965005
2019-10-29,1.6096654362032146
2019-10-30,1.6245336682480793
2019-10-31,1.5565246096462415
2019-11-01,1.5681625790752587
2019-11-04,1.574566834328078
2019-11-05,1.573701345375792
2019-11-06,1.593123155411481
2019-11-07,1.6132231857734314
2019-11-08,1.614910455060072
2019-11-11,1.632458196204895
2019-11-12,1.642520000063919
2019-11-13,1.6369375597385591
2019-11-14,1.6492613811742842
2019-11-15,1.6701442350020277
2019-11-18,1.6631249225754354
2019-11-19,1.6773293248033807
2019-11-20,1.6548750802050953
2019-11-21,1.6483229101392034
2019-11-22,1.5922383640966538
2019-11-25,1.5796323721436112
2019-11-26,1.5463522945108101
2019-11-27,1.560297148657897
2019-11-29,1.551935497662483
2019-12-02,1.5548692890494704
2019-12-03,1.5613708317826434
2019-12-04,1.5699636130920163
2019-12-05,1.5624025072082102
2019-12-06,1.5753671638714057
2019-12-09,1.569674849460561
2019-12-10,1.6014799920215357
2019-12-11,1.6110095360494308
2019-12-12,1.6227430674509224
2019-12-13,1.6197604458325006
2019-12-16,1.6907652982126702
2019-12-17,1.6701005413312862
2019-12-18,1.7077009367838074
2019-12-19,1.7354397204344254
2019-12-20,1.7456261571682616
2019-12-23,1.7740867969620815
2019-12-24,1.7929972265642515
2019-12-26,1.802604612408262
2019-12-27,1.79799773304867
2019-12-30,1.7625605542550697
2019-12-31,1.774781885210612
2020-01-02,1.7977848829324161
2020-01-03,1.8182533616798076
2020-01-06,1.8435247694465833
2020-01-07,1.8870230272934578
2020-01-08,1.9603674237054034
2020-01-09,1.9376542904566691
2020-01-10,1.9258482292550814
2020-01-13,2.028514884559867
2020-01-14,2.0774010756387606
2020-01-15,2.0392308286622005
2020-01-16,2.01650632829174
2020-01-17,2.0103888385424358
2020-01-21,2.07121072515673
2020-01-22,2.122910470092444
2020-01-23,2.129014498375319
2020-01-24,2.1119508174297916
2020-01-27,2.100241859863287
2020-01-28,2.13980723679148
2020-01-29,2.1769972348200293
2020-01-30,2.3213019202587812
2020-01-31,2.330964768525809
2020-02-03,2.4305917223955973
2020-02-04,2.4490732574230125
2020-02-05,2.4376876164861225
2020-02-06,2.4347204611531286
2020-02-07,2.4412873098640224
2020-02-10,2.4932471875714755
2020-02-11,2.496120281217663
2020-02-12,2.531300512566644
2020-02-13,2.562637807399999
2020-02-14,2.5570823355197403
2020-02-18,2.618674549709244
2020-02-19,2.7350277836477224
2020-02-20,2.7079942861576587
2020-02-21,2.594875101944147
2020-02-24,2.501237303798031
2020-02-25,2.469454651723616
2020-02-26,2.4755776766164095
2020-02-27,2.4397470821557357
2020-02-28,2.4397470821557357
2020-03-02,2.465782005622986
2020-03-03,2.4381791384292315
2020-03-04,2.52295874470569
2020-03-05,2.490966062594055
2020-03-06,2.483576354139334
2020-03-09,2.388317867736381
2020-03-10,2.388317867736381
2020-03-11,2.388317867736381
2020-03-12,2.388317867736381
2020-03-13,2.388317867736381
2020-03-16,2.388317867736381
2020-03-17,2.388317867736381
2020-03-18,2.388317867736381
2020-03-19,2.388317867736381
2020-03-20,2.388317867736381
2020-03-23,2.388317867736381
2020-03-24,2.388317867736381
2020-03-25,2.388317867736381
2020-03-26,2.388317867736381
2020-03-27,2.388317867736381
2020-03-30,2.388317867736381
2020-03-31,2.388317867736381
2020-04-01,2.388317867736381
2020-04-02,2.388317867736381
2020-04-03,2.388317867736381
2020-04-06,2.388317867736381
2020-04-07,2.388317867736381
2020-04-08,2.388317867736381
2020-04-09,2.388317867736381
2020-04-13,2.369844587787431
2020-04-14,2.4938998050013854
2020-04-15,2.5779696981757123
2020-04-16,2.6191786575943077
2020-04-17,2.6015240004072315
2020-04-20,2.7243234080030527
2020-04-21,2.5686117097868104
2020-04-22,2.6097896040581277
2020-04-23,2.6270844013343053
2020-04-24,2.690704172584513
2020-04-27,2.6901105713858837
2020-04-28,2.578093612830799
2020-04-29,2.5453743066869396
2020-04-30,2.512020312859142
2020-05-01,2.4778425852149724
2020-05-04,2.5861918287792083
2020-05-05,2.7168789539178313
2020-05-06,2.762585274195767
2020-05-07,2.755934036081153
2020-05-08,2.7367804677509713
2020-05-11,2.844484908719577
2020-05-12,2.789528105986704
2020-05-13,2.859610241513106
2020-05-14,2.8447466176297285
2020-05-15,2.8838637351559284
2020-05-18,2.787451830534126
2020-05-19,2.8110883255422854
2020-05-20,2.906220888971257
2020-05-21,2.917509149566039
2020-05-22,2.9840088758108783
2020-05-26,2.761485026760086
2020-05-27,2.70919225849409
2020-05-28,2.70919225849409
2020-05-29,2.70919225849409
2020-06-01,2.7981729351139304
2020-06-02,2.7777078595120743
2020-06-03,2.772029749805937
2020-06-04,2.6896963467996073
2020-06-05,2.657813507191733
2020-06-08,2.665232880244079
2020-06-09,2.6518452753745194
2020-06-10,2.6947102887507173
2020-06-11,2.5984177810774343
2020-06-12,2.586654256998062
2020-06-15,2.6949980481860756
2020-06-16,2.7367560221192444
2020-06-17,2.7125118005290507
2020-06-18,2.7354245540772038
2020-06-19,2.7087436354135574
2020-06-22,2.7919721775433475
2020-06-23,2.7681932128553446
2020-06-24,2.7326738893775957
2020-06-25,2.770153544249279
2020-06-26,2.6481216947065125
2020-06-29,2.6116289742328167
2020-06-30,2.6680341532877145
2020-07-01,2.6420868268485833
2020-07-02,2.6665295171634575
2020-07-06,2.6252060768055103
2020-07-07,2.6330019904745217
2020-07-08,2.717714477449489
2020-07-09,2.767125410448498
2020-07-10,2.7660877978112306
2020-07-13,2.622884546007405
2020-07-14,2.5828726912165756
2020-07-15,2.5828726912165756
2020-07-16,2.5828726912165756
2020-07-17,2.5828726912165756
2020-07-20,2.7442964089479354
2020-07-21,2.660072875684814
2020-07-22,2.662610581807076
2020-07-23,2.509892397086879
2020-07-24,2.4622652622577865
2020-07-27,2.5638504871990464
2020-07-28,2.5048288448641354
2020-07-29,2.550016572266342
2020-07-30,2.5631410231580505
2020-07-31,2.520045027787398
2020-08-03,2.593754095174879
2020-08-04,2.594574093843847
2020-08-05,2.613181892156322
2020-08-06,2.5946971752932955
2020-08-07,2.4990598518138105
2020-08-10,2.4257669486737035
2020-08-11,2.3900477617518048
2020-08-12,2.3900477617518048
2020-08-13,2.3900477617518048
2020-08-14,2.3900477617518048
2020-08-17,2.507897983068547
2020-08-18,2.533497452914668
2020-08-19,2.519099790689519
2020-08-20,2.6314194957798813
2020-08-21,2.6808707096803976
2020-08-24,2.644747148919795
2020-08-25,2.698863161077646
2020-08-26,2.7865755428489116
2020-08-27,2.8152420483577827
2020-08-28,2.8226533068247344
2020-08-31,2.890261397501276
2020-09-01,2.9100595858296847
2020-09-02,2.8815269287834004
2020-09-03,2.8028437169522347
2020-09-04,2.8028437169522347
2020-09-08,2.8048826058292073
2020-09-09,2.831563005054538
2020-09-10,2.8239026098122793
2020-09-11,2.810212841108157
2020-09-14,2.8244956986670364
2020-09-15,2.8554492319445277
2020-09-16,2.8506485897843277
2020-09-17,2.8187912101329173
2020-09-18,2.8294157936178475
2020-09-21,2.872987807956198
2020-09-22,2.906039217966613
2020-09-23,2.84919142341441
2020-09-24,2.8278078786554883
2020-09-25,2.8566608412409793
2020-09-28,2.8738448179955784
2020-09-29,2.870159076931663
2020-09-30,2.8867822410486736
2020-10-01,2.9236024482827094
2020-10-02,2.8907420093057947
2020-10-05,2.929098162128862
2020-10-06,2.926428647314359
2020-10-07,2.9520006475587692
2020-10-08,2.9438731328019485
2020-10-09,2.9639603624420436
2020-10-12,2.980319656491122
2020-10-13,3.017352810668471
2020-10-14,2.975151871357463
2020-10-15,2.949775659264954
2020-10-16,2.9520828647745825
2020-10-19,2.938020757039994
2020-10-20,2.929673762240094
2020-10-21,2.8907760955092123
2020-10-22,2.878819588120059
2020-10-23,2.878819588120059
2020-10-26,2.8593618239820096
2020-10-27,2.8582941473227104
2020-10-28,2.8289537229211223
2020-10-29,2.8715084352053517
2020-10-30,2.7977101668434345
2020-11-02,2.810034439985362
2020-11-03,2.8404589903711086
2020-11-04,2.851969882504831
2020-11-05,2.9365253724497253
2020-11-06,2.949744910810798
2020-11-09,2.952293178986994
2020-11-10,2.9433731278058213
2020-11-11,2.9896677454571323
2020-11-12,2.95760726898157
2020-11-13,2.9692554353237375
2020-11-16,3.0202311239721826
2020-11-17,3.0144117039589187
2020-11-18,2.9917276438960934
2020-11-19,2.996503332854823
2020-11-20,2.9776617246880828
2020-11-23,2.9686631162382615
2020-11-24,2.994684475632335
2020-11-25,2.9790120736302446
2020-11-27,2.982745259721177
2020-11-30,2.9955708744773917
2020-12-01,3.0221258287884694
2020-12-02,3.0049691415141035
2020-12-03,3.0068144857336296
2020-12-04,3.0623844476642557
2020-12-07,3.063684707954528
2020-12-08,3.067929506225374
2020-12-09,3.0491390405533463
2020-12-10,3.043586311443623
2020-12-11,3.0119524641119213
2020-12-14,3.0010775174098008
2020-12-15,2.9908819129730837
2020-12-16,2.998093698252567
2020-12-17,3.1635933412744186
2020-12-18,3.18967831764704
2020-12-21,3.2101871115758676
2020-12-22,3.261020194248775
2020-12-23,3.168915578328203
2020-12-24,3.184914398903434
2020-12-28,3.1173840483198285
2020-12-29,3.1131236671217244
2020-12-30,3.1139375063675425
2020-12-31,3.097797780011307
2021-01-04,3.0432465307787204
2021-01-05,3.0432465307787204
2021-01-06,3.0432465307787204
2021-01-07,3.0432465307787204
2021-01-08,3.0432465307787204
2021-01-11,3.0332397194693854
2021-01-12,3.110945921608285
2021-01-13,3.07106754317934
2021-01-14,3.04876736915816
2021-01-15,2.9734472696218317
2021-01-19,3.0227879987488677
2021-01-20,3.063361223631243
2021-01-21,3.017316931325057
2021-01-22,3.0374177719016284
2021-01-25,3.0060508631749085
2021-01-26,3.010153206364139
2021-01-27,2.9762418366018393
2021-01-28,2.9247745110563548
2021-01-29,2.847604228398861
2021-02-01,2.855594681672792
2021-02-02,2.8837200061783475
2021-02-03,2.846181863420436
2021-02-04,2.9174970974191345
2021-02-05,2.90750088207649
2021-02-08,2.928913861381303
2021-02-09,2.941757056712034
2021-02-10,2.995536561337372
2021-02-11,3.082257047310164
2021-02-12,3.147106101757926
2021-02-16,3.1626051161100692
2021-02-17,3.0967551590647946
2021-02-18,3.0880264814189564
2021-02-19,3.1187019472049906
2021-02-22,2.9679953585350587
2021-02-23,2.939737042151023
2021-02-24,2.939737042151023
2021-02-25,2.939737042151023
2021-02-26,2.939737042151023
2021-03-01,2.9479366357781385
2021-03-02,2.8905989285005687
2021-03-03,2.8627134578834523
2021-03-04,2.822147560464982
2021-03-05,2.822147560464982
2021-03-08,2.7495738285019393
2021-03-09,2.8368444516769964
2021-03-10,2.7962247207640636
2021-03-11,2.855500442899166
2021-03-12,2.825094337531795
2021-03-15,2.8373876309407606
2021-03-16,2.8805819449422287
2021-03-17,2.9158649839353665
2021-03-18,2.8413616585314525
2021-03-19,2.8504860138083212
2021-03-22,2.884578547337862
2021-03-23,2.819287776243773
2021-03-24,2.848810360869815
2021-03-25,2.840178674074009
2021-03-26,2.8959711675800053
2021-03-29,2.8886907808592253
2021-03-30,2.8788019570885424
2021-03-31,2.9267692284219966
2021-04-01,2.988706146204658
2021-04-05,3.0431362030943827
2021-04-06,2.9990899528609485
2021-04-07,3.012142682305901
2021-04-08,3.031490687713243
2021-04-09,3.056015698972803
2021-04-12,2.967311796382121
2021-04-13,2.963654198709446
2021-04-14,2.9344304796803744
2021-04-15,2.9548296644785843
2021-04-16,2.9444898887209416
2021-04-19,2.909188962550643
2021-04-20,2.909188962550643
2021-04-21,2.909188962550643
2021-04-22,2.909188962550643
2021-04-23,2.909188962550643
2021-04-26,2.934996865316332
2021-04-27,2.9217313922806336
2021-04-28,2.922412145216244
2021-04-29,2.909824839318792
2021-04-30,2.883900221473546
2021-05-03,2.8896916720519377
2021-05-04,2.7952357730961968
2021-05-05,2.777457103218331
2021-05-06,2.7842730976715977
2021-05-07,2.8088341016323426
2021-05-10,2.7837130987586205
2021-05-11,2.765048139265578
2021-05-12,2.7297903638868335
2021-05-13,2.7421959108308505
2021-05-14,2.748889803379826
2021-05-17,2.7476066398413854
2021-05-18,2.73757682154384
2021-05-19,2.7252425779727893
2021-05-20,2.725063936231694
2021-05-21,2.7278307704085183
2021-05-24,2.758513549132248
2021-05-25,2.7671695049666702
2021-05-26,2.7704488752962266
2021-05-27,2.789799712803383
2021-05-28,2.770401218012344
2021-06-01,2.779526008560156
2021-06-02,2.785859188899913
2021-06-03,2.7798277554318807
2021-06-04,2.814394080609432
2021-06-07,2.8505087570496555
2021-06-08,2.8440397787357368
2021-06-09,2.828512656547854
2021-06-10,2.818185888233674
2021-06-11,2.8183898362954514
2021-06-14,2.839543274939566
2021-06-15,2.8282438463258273
2021-06-16,2.803904440012489
2021-06-17,2.8272137508105155
2021-06-18,2.797808894030573
2021-06-21,2.8084985108233678
2021-06-22,2.8718947881327566
2021-06-23,2.8913792895056627
2021-06-24,2.9136163471064975
2021-06-25,2.892758474565449
2021-06-28,3.025567445050491
2021-06-29,3.012601478376066
2021-06-30,2.992839296163667
2021-07-01,3.037227132006576
2021-07-02,3.059183727111905
2021-07-06,3.066804879872506
2021-07-07,3.0324676228793237
2021-07-08,2.9765148733561126
2021-07-09,3.008053867177935
2021-07-12,3.0544854522754
2021-07-13,3.0302039895231783
2021-07-14,2.980420524627762
2021-07-15,2.9394181306444462
2021-07-16,2.925252402878641
2021-07-19,2.9108642927327573
2021-07-20,2.9251265547652796
2021-07-21,2.93371596118567
2021-07-22,2.943719778711026
2021-07-23,2.9541033245800143
2021-07-26,2.8954341066428135
2021-07-27,2.837205153473042
2021-07-28,2.837482493489237
2021-07-29,2.840997014188256
2021-07-30,2.8475011086094915
2021-08-02,2.8802427424238495
2021-08-03,2.9370151175526065
2021-08-04,3.0291470590464
2021-08-05,2.945608406715622
2021-08-06,2.9100439187023666
2021-08-09,2.8802145023310093
2021-08-10,2.8727771943706055
2021-08-11,2.875839653140989
2021-08-12,2.882678899300106
2021-08-13,2.888249780182173
2021-08-16,2.8702539550044266
2021-08-17,2.8543883313446017
2021-08-18,2.8467784892899637
2021-08-19,2.859262073964767
2021-08-20,2.848442223272646
2021-08-23,2.873312233986474
2021-08-24,2.9072965983408885
2021-08-25,2.906574116941
2021-08-26,2.860436206701507
2021-08-27,2.898156258298857
2021-08-30,2.930514638773233
2021-08-31,2.9438775609806562
2021-09-01,2.9136539958576955
2021-09-02,2.956661509512835
2021-09-03,2.99441069278032
2021-09-07,2.9632550844121472
2021-09-08,2.9749683571197716
2021-09-09,2.9868202797355172
2021-09-10,2.901621551500104
2021-09-13,2.8796502890099545
2021-09-14,2.9703959930373465
2021-09-15,2.9758723233725575
2021-09-16,3.0477125313431683
2021-09-17,3.0290599094683595
2021-09-20,2.9671178957788125
2021-09-21,2.9986005789616805
2021-09-22,3.0992500660709155
2021-09-23,3.09659667187709
2021-09-24,3.0768208795779834
2021-09-27,2.9459732215776824
2021-09-28,2.8272759131081457
2021-09-29,2.8272759131081457
2021-09-30,2.8272759131081457
2021-10-01,2.8272759131081457
2021-10-04,2.770751388541274
2021-10-05,2.806151227131856
2021-10-06,2.8339317341746195
2021-10-07,2.8381408962948744
2021-10-08,2.7927806968142344
2021-10-11,2.808826376205925
2021-10-12,2.852361183232941
2021-10-13,2.9384496741563577
2021-10-14,2.918758957182747
2021-10-15,2.9281205334647376
2021-10-18,2.9612213723675174
2021-10-19,2.96999069245567
2021-10-20,2.9690885159932403
2021-10-21,2.986836823994815
2021-10-22,2.987112046555359
2021-10-25,3.0045593731335156
2021-10-26,2.989475595254904
2021-10-27,2.950397565413398
2021-10-28,2.9798557994429244
2021-10-29,3.035195738414972
2021-11-01,2.9907941839983443
2021-11-02,3.0200216120797254
2021-11-03,3.014087984497106
2021-11-04,3.055846760350286
2021-11-05,3.178639201866763
2021-11-08,3.2314888748552617
2021-11-09,3.2655217731195734
2021-11-10,3.1938836102182466
2021-11-11,3.191835468753655
2021-11-12,3.232905113611614
2021-11-15,3.2153383245152685
2021-11-16,3.261942065803834
2021-11-17,3.224130133726116
2021-11-18,3.2224153624898264
2021-11-19,3.2352961825995044
2021-11-22,3.1089128847874883
2021-11-23,3.0841232854617004
2021-11-24,3.0841232854617004
2021-11-26,3.0841232854617004
2021-11-29,3.1754219030423423
2021-11-30,3.107410767568803
2021-12-01,2.9578043342261484
2021-12-02,3.0061022906497694
2021-12-03,2.88122810504445
2021-12-06,2.853731501759928
2021-12-07,2.9054688687906
2021-12-08,2.903596727167144
2021-12-09,2.892874917920379
2021-12-10,2.884280308123752
2021-12-13,2.835498234016742
2021-12-14,2.809063050606597
2021-12-15,2.8920952940853173
2021-12-16,2.807737942154194
2021-12-17,2.8317340063306347
2021-12-20,2.8669047093608797
2021-12-21,2.8971755557323995
2021-12-22,2.9346222613227786
2021-12-23,2.9514428326206774
2021-12-27,2.9997689459427703
2021-12-28,2.963703863979695
2021-12-29,2.9766516424199687
2021-12-30,2.950045306081728
2021-12-31,2.9512260172150744
2022-01-03,2.9629210664486267
2022-01-04,2.97133342407828
2022-01-05,2.871224898498267
2022-01-06,2.8447464353289784
2022-01-07,2.834347629342222
2022-01-10,2.834903935853835
2022-01-11,2.844195980932643
2022-01-12,2.851005032863938
2022-01-13,2.856237601321043
2022-01-14,2.8930952190665886
2022-01-18,2.8498377427746666
2022-01-19,2.8275316679895433
2022-01-20,2.8155596180410143
2022-01-21,2.813874856524062
2022-01-24,2.8044973984474257
2022-01-25,2.8044973984474257
2022-01-26,2.8044973984474257
2022-01-27,2.8044973984474257
2022-01-28,2.8044973984474257
2022-01-31,2.8044973984474257
2022-02-01,2.8044973984474257
2022-02-02,2.8044973984474257
2022-02-03,2.8044973984474257
2022-02-04,2.8044973984474257
2022-02-07,2.8044973984474257
2022-02-08,2.8044973984474257
2022-02-09,2.8044973984474257
2022-02-10,2.8044973984474257
2022-02-11,2.8044973984474257
2022-02-14,2.8044973984474257
2022-02-15,2.8044973984474257
2022-02-16,2.8044973984474257
2022-02-17,2.8044973984474257
2022-02-18,2.8044973984474257
2022-02-22,2.8044973984474257
2022-02-23,2.8044973984474257
2022-02-24,2.8044973984474257
2022-02-25,2.8044973984474257
2022-02-28,2.8044973984474257
2022-03-01,2.8044973984474257
2022-03-02,2.8044973984474257
2022-03-03,2.8044973984474257
2022-03-04,2.8044973984474257
2022-03-07,2.8044973984474257
2022-03-08,2.8044973984474257
2022-03-09,2.8044973984474257
2022-03-10,2.8044973984474257
2022-03-11,2.8044973984474257
2022-03-14,2.8044973984474257
2022-03-15,2.8044973984474257
2022-03-16,2.8044973984474257
2022-03-17,2.8044973984474257
2022-03-18,2.8044973984474257
2022-03-21,2.8044973984474257
2022-03-22,2.8044973984474257
2022-03-23,2.8044973984474257
2022-03-24,2.8044973984474257
2022-03-25,2.8044973984474257
2022-03-28,2.8044973984474257
2022-03-29,2.8044973984474257
2022-03-30,2.8044973984474257
2022-03-31,2.8044973984474257
2022-04-01,2.8044973984474257
2022-04-04,2.8044973984474257
2022-04-05,2.8044973984474257
2022-04-06,2.8044973984474257
2022-04-07,2.8044973984474257
2022-04-08,2.8044973984474257
2022-04-11,2.8044973984474257
2022-04-12,2.8044973984474257
2022-04-13,2.8044973984474257
2022-04-14,2.8044973984474257
2022-04-18,2.8044973984474257
2022-04-19,2.8044973984474257
2022-04-20,2.8044973984474257
2022-04-21,2.8044973984474257
2022-04-22,2.8044973984474257
2022-04-25,2.8044973984474257
2022-04-26,2.8044973984474257
2022-04-27,2.8044973984474257
2022-04-28,2.8044973984474257
2022-04-29,2.8044973984474257
2022-05-02,2.8044973984474257
2022-05-03,2.8044973984474257
2022-05-04,2.8044973984474257
2022-05-05,2.8044973984474257
2022-05-06,2.8044973984474257
2022-05-09,2.8044973984474257
2022-05-10,2.8044973984474257
2022-05-11,2.8044973984474257
2022-05-12,2.8044973984474257
2022-05-13,2.8044973984474257
2022-05-16,2.8044973984474257
2022-05-17,2.8044973984474257
2022-05-18,2.8044973984474257
2022-05-19,2.8044973984474257
2022-05-20,2.8044973984474257
2022-05-23,2.8044973984474257
2022-05-24,2.8044973984474257
2022-05-25,2.8044973984474257
2022-05-26,2.8044973984474257
2022-05-27,2.8044973984474257
2022-05-31,2.8044973984474257
2022-06-01,2.8044973984474257
2022-06-02,2.8044973984474257
2022-06-03,2.8044973984474257
2022-06-06,2.8044973984474257
2022-06-07,2.8044973984474257
2022-06-08,2.8044973984474257
2022-06-09,2.8044973984474257
2022-06-10,2.8044973984474257
2022-06-13,2.8044973984474257
2022-06-14,2.8044973984474257
2022-06-15,2.8044973984474257
2022-06-16,2.8044973984474257
2022-06-17,2.8044973984474257
2022-06-21,2.8044973984474257
2022-06-22,2.8044973984474257
2022-06-23,2.8044973984474257
2022-06-24,2.8044973984474257
2022-06-27,2.8044973984474257
2022-06-28,2.8044973984474257
2022-06-29,2.8044973984474257
2022-06-30,2.8044973984474257
2022-07-01,2.8044973984474257
2022-07-05,2.8044973984474257
2022-07-06,2.8044973984474257
2022-07-07,2.8044973984474257
2022-07-08,2.8044973984474257
2022-07-11,2.8044973984474257
2022-07-12,2.8044973984474257
2022-07-13,2.8044973984474257
2022-07-14,2.8044973984474257
2022-07-15,2.8044973984474257
2022-07-18,2.8044973984474257
2022-07-19,2.8044973984474257
2022-07-20,2.8044973984474257
2022-07-21,2.8044973984474257
2022-07-22,2.8044973984474257
2022-07-25,2.8044973984474257
2022-07-26,2.8044973984474257
2022-07-27,2.8044973984474257
2022-07-28,2.8044973984474257
2022-07-29,2.8044973984474257
2022-08-01,2.8044973984474257
2022-08-02,2.8044973984474257
2022-08-03,2.8044973984474257
2022-08-04,2.8044973984474257
2022-08-05,2.8044973984474257
2022-08-08,2.8044973984474257
2022-08-09,2.8044973984474257
2022-08-10,2.8044973984474257
2022-08-11,2.8044973984474257
2022-08-12,2.8044973984474257
2022-08-15,2.8044973984474257
2022-08-16,2.8044973984474257
2022-08-17,2.8044973984474257
2022-08-18,2.8044973984474257
2022-08-19,2.8044973984474257
2022-08-22,2.8044973984474257
2022-08-23,2.8044973984474257
2022-08-24,2.8044973984474257
2022-08-25,2.8044973984474257
2022-08-26,2.8044973984474257
2022-08-29,2.8044973984474257
2022-08-30,2.8044973984474257
2022-08-31,2.8044973984474257
2022-09-01,2.8044973984474257
2022-09-02,2.8044973984474257
2022-09-06,2.8044973984474257
2022-09-07,2.8044973984474257
2022-09-08,2.8044973984474257
2022-09-09,2.8044973984474257
2022-09-12,2.8044973984474257
2022-09-13,2.8044973984474257
2022-09-14,2.8044973984474257
2022-09-15,2.8044973984474257
2022-09-16,2.8044973984474257
2022-09-19,2.8044973984474257
2022-09-20,2.8044973984474257
2022-09-21,2.8044973984474257
2022-09-22,2.8044973984474257
2022-09-23,2.8044973984474257
2022-09-26,2.8044973984474257
2022-09-27,2.8044973984474257
2022-09-28,2.8044973984474257
2022-09-29,2.8044973984474257
2022-09-30,2.8044973984474257
2022-10-03,2.8044973984474257
2022-10-04,2.8044973984474257
2022-10-05,2.8044973984474257
2022-10-06,2.8044973984474257
2022-10-07,2.8044973984474257
2022-10-10,2.8044973984474257
2022-10-11,2.8044973984474257
2022-10-12,2.8044973984474257
2022-10-13,2.8044973984474257
2022-10-14,2.8044973984474257
2022-10-17,2.8044973984474257
2022-10-18,2.8044973984474257
2022-10-19,2.8044973984474257
2022-10-20,2.8044973984474257
2022-10-21,2.8044973984474257
2022-10-24,2.8044973984474257
2022-10-25,2.8044973984474257
2022-10-26,2.8044973984474257
2022-10-27,2.8044973984474257
2022-10-28,2.8044973984474257
2022-10-31,2.8044973984474257
2022-11-01,2.8044973984474257
2022-11-02,2.8044973984474257
2022-11-03,2.8044973984474257
2022-11-04,2.8044973984474257
2022-11-07,2.8044973984474257
2022-11-08,2.8044973984474257
2022-11-09,2.8044973984474257
2022-11-10,2.8044973984474257
2022-11-11,2.8044973984474257
2022-11-14,2.8044973984474257
2022-11-15,2.8044973984474257
2022-11-16,2.8044973984474257
2022-11-17,2.8044973984474257
2022-11-18,2.8044973984474257
2022-11-21,2.8044973984474257
2022-11-22,2.8044973984474257
2022-11-23,2.8044973984474257
2022-11-25,2.8044973984474257
2022-11-28,2.8044973984474257
2022-11-29,2.8044973984474257
2022-11-30,2.8044973984474257
2022-12-01,2.8044973984474257
2022-12-02,2.8044973984474257
2022-12-05,2.8044973984474257
2022-12-06,2.8044973984474257
2022-12-07,2.8044973984474257
2022-12-08,2.8044973984474257
2022-12-09,2.8044973984474257
2022-12-12,2.8044973984474257
2022-12-13,2.8044973984474257
2022-12-14,2.8044973984474257
2022-12-15,2.8044973984474257
2022-12-16,2.8044973984474257
2022-12-19,2.8044973984474257
2022-12-20,2.8044973984474257
2022-12-21,2.8044973984474257
2022-12-22,2.8044973984474257
2022-12-23,2.8044973984474257
2022-12-27,2.8044973984474257
2022-12-28,2.8044973984474257
2022-12-29,2.8044973984474257
2022-12-30,2.8044973984474257
2023-01-03,2.8044973984474257
2023-01-04,2.8044973984474257
2023-01-05,2.8044973984474257
2023-01-06,2.8044973984474257
2023-01-09,2.8044973984474257
2023-01-10,2.8044973984474257
2023-01-11,2.8044973984474257
2023-01-12,2.8044973984474257
2023-01-13,2.8044973984474257
2023-01-17,2.8044973984474257
2023-01-18,2.8044973984474257
2023-01-19,2.8044973984474257
2023-01-20,2.8044973984474257
2023-01-23,2.8044973984474257
2023-01-24,2.8044973984474257
2023-01-25,2.8044973984474257
2023-01-26,2.8044973984474257
2023-01-27,2.8044973984474257
2023-01-30,2.8044973984474257
2023-01-31,2.8044973984474257
2023-02-01,2.8044973984474257
2023-02-02,2.8044973984474257
2023-02-03,2.8044973984474257
2023-02-06,2.820037374814892
2023-02-07,2.934892454302505
2023-02-08,2.87548016710463
2023-02-09,2.8429548656124
2023-02-10,2.742364321030739
2023-02-13,2.8173062377782223
2023-02-14,2.8974119964343816
2023-02-15,2.8660199768527366
2023-02-16,2.7791810577041245
2023-02-17,2.731542135738927
2023-02-21,2.673487643902071
2023-02-22,2.6764352087594476
2023-02-23,2.876128190583323
2023-02-24,2.8442500208202146
2023-02-27,2.855442221901334
2023-02-28,2.8571868665590205
2023-03-01,2.8163779846182067
2023-03-02,2.862201131732797
2023-03-03,2.942616532866757
2023-03-06,2.918613385176556
2023-03-07,2.8994392815772443
2023-03-08,2.961418997193526
2023-03-09,2.898473402265056
2023-03-10,2.8582659036178946
2023-03-13,2.8637266908333396
2023-03-14,2.988580366006114
2023-03-15,3.0141756569028377
2023-03-16,3.1305417226065186
2023-03-17,3.106781762753714
2023-03-20,3.1271143708055087
2023-03-21,3.1641477628040624
2023-03-22,3.173162310106024
2023-03-23,3.2392420893634393
2023-03-24,3.2181827742773805
2023-03-27,3.1891657348372746
2023-03-28,3.172628277015205
2023-03-29,3.229440667570338
2023-03-30,3.2659979532666448
2023-03-31,3.3084649673053805
2023-04-03,3.325522198568825
2023-04-04,3.2974118696208734
2023-04-05,3.246282841106754
2023-04-06,3.274724979933918
2023-04-10,3.3060213716146176
2023-04-11,3.2748923029937007
2023-04-12,3.23004148825045
2023-04-13,3.2525234485709973
2023-04-14,3.276831877488628
2023-04-17,3.283074562253238
2023-04-18,3.324136996777278
2023-04-19,3.333435199001613
2023-04-20,3.267484172515494
2023-04-21,3.2677968541279263
2023-04-24,3.2622186025056523
2023-04-25,3.1896527924483786
2023-04-26,3.2378493239150763
2023-04-27,3.256049487411393
2023-04-28,3.2913037547425734
2023-05-01,3.396715611161112
2023-05-02,3.3260704060205177
2023-05-03,3.285409267565433
2023-05-04,3.2483317342579996
2023-05-05,3.3192874753483874
2023-05-08,3.3539543621453505
2023-05-09,3.3154532214609755
2023-05-10,3.3348923807553135
2023-05-11,3.330334000643702
2023-05-12,3.3025020078589016
2023-05-15,3.37389170705318
2023-05-16,3.39117965611851
2023-05-17,3.4780801809476687
2023-05-18,3.6051528934342016
2023-05-19,3.5700413640984
2023-05-22,3.5800665401105327
2023-05-23,3.537763933751748
2023-05-24,3.542360071275426
2023-05-25,4.064729402388031
2023-05-26,4.1855167798681965
2023-05-30,4.266905338295796
2023-05-31,4.126517697089259
2023-06-01,4.303997939694779
2023-06-02,4.274136046499406
2023-06-05,4.2563570608162475
2023-06-06,4.219899555541783
2023-06-07,4.095910765202209
2023-06-08,4.171520422572746
2023-06-09,4.191251074393929
2023-06-12,4.275571276996072
2023-06-13,4.380998365252963
2023-06-14,4.526229819623227
2023-06-15,4.553530741548811
2023-06-16,4.55121747894787
2023-06-20,4.646280286594889
2023-06-21,4.57882605907947
2023-06-22,4.596769197394651
2023-06-23,4.564682755188384
2023-06-26,4.39727926522259
2023-06-27,4.532230166694453
2023-06-28,4.470583716665574
2023-06-29,4.428307587418942
2023-06-30,4.560532123875245
2023-07-03,4.562299480094239
2023-07-05,4.605546308838191
2023-07-06,4.576948083837846
2023-07-07,4.595220815316751
2023-07-10,4.594702471805883
2023-07-11,4.634818740490462
2023-07-12,4.801532918472618
2023-07-13,4.965652695552328
2023-07-14,4.904373765119222
2023-07-17,4.981668894052861
2023-07-18,5.0598234375307065
2023-07-19,5.055289673774087
2023-07-20,4.870002529846787
2023-07-21,4.742855433063948
2023-07-24,4.797240678109768
2023-07-25,4.938477703089643
2023-07-26,4.900091943162522
2023-07-27,4.988029322037307
2023-07-28,5.086752742573538
2023-07-31,5.060866018157214
2023-08-01,5.08807336881219
2023-08-02,4.811341343125294
2023-08-03,4.8205973653011025
2023-08-04,4.91824964060117
2023-08-07,4.988379332584942
2023-08-08,4.8721346121516955
2023-08-09,4.67983821744976
2023-08-10,4.67983821744976
2023-08-11,4.67983821744976
2023-08-14,4.733521027343184
2023-08-15,4.717518288967835
2023-08-16,4.697942021112271
2023-08-17,4.630015011471229
2023-08-18,4.622898918488994
2023-08-21,4.636147052918836
2023-08-22,4.650466907004077
2023-08-23,4.671794317111342
2023-08-24,4.645287454554117
2023-08-25,4.658997824556969
2023-08-28,4.682399425782123
2023-08-29,4.727762351051079
2023-08-30,4.765439645615155
2023-08-31,4.758798881361054
2023-09-01,4.76123672438971
2023-09-05,4.716970197170568
2023-09-06,4.678350266531
2023-09-07,4.685967190410377
2023-09-08,4.6749988014280675
2023-09-11,4.675403618053254
2023-09-12,4.640036758291448
2023-09-13,4.595689199271133
2023-09-14,4.674264379769409
2023-09-15,4.64046475377314
2023-09-18,4.663659925161923
2023-09-19,4.528530768596804
2023-09-20,4.528530768596804
2023-09-21,4.528530768596804
2023-09-22,4.528530768596804
2023-09-25,4.511807461300504
2023-09-26,4.524948532612957
2023-09-27,4.542596169459776
2023-09-28,4.565836282822128
2023-09-29,4.572013963436198
2023-10-02,4.576750647639281
2023-10-03,4.496293996577656
2023-10-04,4.510419462676168
2023-10-05,4.519090454246305
2023-10-06,4.598808326649298
2023-10-09,4.638921965930921
2023-10-10,4.650657095062183
2023-10-11,4.7859584497911385
2023-10-12,4.793555353770773
2023-10-13,4.772716768454842
2023-10-16,4.809930491658919
2023-10-17,4.785360959159027
2023-10-18,4.782781454834627
2023-10-19,4.734641411583199
2023-10-20,4.6791817626755865
2023-10-23,4.592736175561132
2023-10-24,4.578396352276364
2023-10-25,4.578396352276364
2023-10-26,4.578396352276364
2023-10-27,4.578396352276364
2023-10-30,4.589455290461551
2023-10-31,4.592220177840077
2023-11-01,4.602570109399074
2023-11-02,4.607177781728584
2023-11-03,4.601081381711708
2023-11-06,4.575866044975346
2023-11-07,4.649235849725622
2023-11-08,4.657556037406993
2023-11-09,4.617498909202792
2023-11-10,4.701137193276583
2023-11-13,4.768292612937391
2023-11-14,4.853394739610392
2023-11-15,4.8237071095044275
2023-11-16,4.781653556812145
2023-11-17,4.815974159042267
2023-11-20,4.9004683692540105
2023-11-21,4.744484534776763
2023-11-22,4.739923785084892
2023-11-24,4.701343741246746
2023-11-27,4.753100492697738
2023-11-28,4.772514613746421
2023-11-29,5.036002108670985
2023-11-30,5.051855968218199
2023-12-01,5.058958712988249
2023-12-04,5.047794111763363
2023-12-05,5.13250935210487
2023-12-06,5.031422786038824
2023-12-07,5.061982369142113
2023-12-08,5.110593732856
2023-12-11,5.173019386567713
2023-12-12,5.183021271140964
2023-12-13,5.2659781803698795
2023-12-14,5.383307083650626
2023-12-15,5.451936679881621
2023-12-18,5.457756431186102
2023-12-19,5.476180702907675
2023-12-20,5.335659084859026
2023-12-21,5.398105400926928
2023-12-22,5.398076079314759
2023-12-26,5.466415137949529
2023-12-27,5.463591064190126
2023-12-28,5.472028327514021
2023-12-29,5.426153146663598
2024-01-02,5.169585674854288
2024-01-03,5.169585674854288
2024-01-04,5.169585674854288
2024-01-05,5.169585674854288
2024-01-08,5.373013438934558
2024-01-09,5.557895184656262
2024-01-10,5.629496250269874
2024-01-11,5.645367959919378
2024-01-12,5.606475863593351
2024-01-16,5.860944127240785
2024-01-17,5.784460798586094
2024-01-18,5.900685906936292
2024-01-19,6.189809340032202
2024-01-22,6.161716584889344
2024-01-23,6.151873194840564
2024-01-24,6.364519886818121
2024-01-25,6.332106198370644
2024-01-26,6.243063897749112
2024-01-29,6.36005094938831
2024-01-30,6.260771245069371
2024-01-31,5.998136164232054
2024-02-01,6.068630465948326
2024-02-02,6.111727574852196
2024-02-05,6.099222900090302
2024-02-06,6.095323599085615
2024-02-07,6.256116530613195
2024-02-08,6.310090472242473
2024-02-09,6.374735822451715
2024-02-12,6.2776107562039964
2024-02-13,6.10566288466871
2024-02-14,6.178771497679522
2024-02-15,6.127528979567673
2024-02-16,6.125671948922301
2024-02-20,5.931601576633234
2024-02-21,5.931601576633234
2024-02-22,5.931601576633234
2024-02-23,5.931601576633234
2024-02-26,5.981002700533812
2024-02-27,6.0976979186559435
2024-02-28,5.944721168573664
2024-02-29,6.069914859381406
2024-03-01,6.274856325105351
2024-03-04,6.229639531355508
2024-03-05,6.134071153467192
2024-03-06,6.255227249609172
2024-03-07,6.383228673622581
2024-03-08,6.356747976974297
2024-03-11,6.058978585356911
2024-03-12,6.114375857906744
2024-03-13,6.215937328578226
2024-03-14,6.2210666187017845
2024-03-15,6.2179891228956
2024-03-18,6.475483439629711
2024-03-19,6.449323551257887
2024-03-20,6.597049220051021
2024-03-21,6.66834780072556
2024-03-22,6.633468080009713
2024-03-25,6.7373951171064625
2024-03-26,6.582513068157944
2024-03-27,6.394823086298541
2024-03-28,6.416651225022987
2024-04-01,6.4127694382884535
2024-04-02,6.413623149265265
2024-04-03,6.559205885806254
2024-04-04,6.476800883180354
2024-04-05,6.5801576249620695
2024-04-08,6.667790910669757
2024-04-09,6.585156481850166
2024-04-10,6.570340826394652
2024-04-11,6.736740331044676
2024-04-12,6.5349995259242055
2024-04-15,6.307713109789221
2024-04-16,6.3191559721266914
2024-04-17,6.246319034888812
2024-04-18,6.200359953584538
2024-04-19,6.200359953584538
2024-04-22,6.239424753347232
2024-04-23,6.278888324618318
2024-04-24,6.299352228581003
2024-04-25,6.236612016900088
2024-04-26,6.55322504341742
2024-04-29,6.437433723248782
2024-04-30,6.371190308150194
2024-05-01,6.391279583312981
2024-05-02,6.447719121339929
2024-05-03,6.459213434324004
2024-05-06,6.476198818043899
2024-05-07,6.53913870479577
2024-05-08,6.502271072446121
2024-05-09,6.512270049876696
2024-05-10,6.486293079073893
2024-05-13,6.497276624619328
2024-05-14,6.519564753546279
2024-05-15,6.560738565177942
2024-05-16,6.5929140581408525
2024-05-17,6.630280333964759
2024-05-20,6.650544268617139
2024-05-21,6.670616890040245
2024-05-22,6.640549078316225
2024-05-23,6.582909583799702
2024-05-24,6.609993294687013
2024-05-28,6.640948544836965
2024-05-29,6.629765497003898
2024-05-30,6.5535404030976085
2024-05-31,6.506301185764193
2024-06-03,6.532074008718535
2024-06-04,6.531696190365356
2024-06-05,6.783089050711722
2024-06-06,6.724567090153368
2024-06-07,6.669712096060016
2024-06-10,6.635605438743831
2024-06-11,6.4638191299902275
2024-06-12,6.586658564164333
2024-06-13,6.712934058785091
2024-06-14,6.777933542809712
2024-06-17,6.800306618070832
2024-06-18,6.888080432288389
2024-06-20,6.637307877707599
2024-06-21,6.412619201717627
2024-06-24,6.261932263102172
2024-06-25,6.242539787416386
2024-06-26,6.2615761791257185
2024-06-27,6.252508030191699
2024-06-28,6.284551634512393
2024-07-01,6.365583453262454
2024-07-02,6.352395140552414
2024-07-03,6.617095316239624
2024-07-05,6.510699954275349
2024-07-08,6.643313976460773
2024-07-09,6.702992196742429
2024-07-10,6.812218469647423
2024-07-11,6.55516773097688
2024-07-12,6.593063896202736
2024-07-15,6.595664324299204
2024-07-16,6.50804892454695
2024-07-17,6.2363826034952945
2024-07-18,6.2363826034952945
2024-07-19,6.2363826034952945
2024-07-22,6.257658181257184
2024-07-23,6.243769310246368
2024-07-24,5.989452834983546
2024-07-25,5.989452834983546
2024-07-26,5.989452834983546
2024-07-29,5.956337249997371
2024-07-30,5.921213356759849
2024-07-31,5.94583500032655
2024-08-01,5.915541953372195
2024-08-02,5.869260328795562
2024-08-05,5.7908649278438435
2024-08-06,5.7953798457984895
2024-08-07,5.751831885223665
2024-08-08,5.782148776745778
2024-08-09,5.745348944162188
2024-08-12,5.683975040020888
2024-08-13,5.7319287219042945
2024-08-14,5.760890869021694
2024-08-15,5.771336190503302
2024-08-16,5.812168148728084
2024-08-19,5.855954081626584
2024-08-20,5.836071748977464
2024-08-21,5.896161257873264
2024-08-22,5.794798958420823
2024-08-23,5.860077296538461
2024-08-26,5.769404793565533
2024-08-27,5.752512289237669
2024-08-28,5.622844871179015
2024-08-29,5.651771345766438
2024-08-30,5.683043419754126
2024-09-03,5.5328884735551505
2024-09-04,5.536491073420695
2024-09-05,5.51712706693361
2024-09-06,5.524782602384486
2024-09-09,5.735435615566756
2024-09-10,5.767076755175207
2024-09-11,5.797008935338939
2024-09-12,5.792195984214402
2024-09-13,5.797486404689772
2024-09-16,5.829710776201528
2024-09-17,5.819840814601255
2024-09-18,5.783393972958711
2024-09-19,5.8223215238374335
2024-09-20,5.812059344947006
2024-09-23,5.850959813925281
2024-09-24,5.805865469196765
2024-09-25,5.807511061475493
2024-09-26,5.78572210140195
2024-09-27,5.774013716258497
2024-09-30,5.858915809116103
2024-10-01,5.827850996449198
2024-10-02,5.890277589765909
2024-10-03,6.056981030767506
2024-10-04,6.191302188377245
2024-10-07,6.147418334494093
2024-10-08,6.343141638323062
2024-10-09,6.416310802245381
2024-10-10,6.466411045674187
2024-10-11,6.514766993792949
2024-10-14,6.471401272012811
2024-10-15,6.394052228075189
2024-10-16,6.395035473881872
2024-10-17,6.356385919133869
2024-10-18,6.450229583893453
2024-10-21,6.746047596538035
2024-10-22,6.759114653697241
2024-10-23,6.753521240467473
2024-10-24,6.788164797085206
2024-10-25,6.90613335020689
2024-10-28,7.014009308965436
2024-10-29,7.1490239174500125
2024-10-30,7.079851881754431
2024-10-31,6.912087546143997
2024-11-01,6.7796778834051885
2024-11-04,6.690052110540487
2024-11-05,6.883662521104291
2024-11-06,7.028922287825033
2024-11-07,8.857421082957526
2024-11-08,9.107379538151944
2024-11-11,9.084336080952403
2024-11-12,9.065469934515392
2024-11-13,9.075348895573807
2024-11-14,8.97297730803354
2024-11-15,9.414026333726088
2024-11-18,9.09040402781135
2024-11-19,9.233225415650711
2024-11-20,9.178590902613013
2024-11-21,9.18295691623689
2024-11-22,9.400591361725505
2024-11-25,9.41787008516394
2024-11-26,9.51843940359969
2024-11-27,9.480822788201026
2024-11-29,9.61080585010326
2024-12-02,9.642367934840362
2024-12-03,9.969124781440257
2024-12-04,10.331947889808951
2024-12-05,10.388780240801301
2024-12-06,10.729868097412144
2024-12-09,10.210760157205186
2024-12-10,10.182030213020857
2024-12-11,10.182030213020857
2024-12-12,10.182030213020857
2024-12-13,10.182030213020857
2024-12-16,10.712983034754458
2024-12-17,10.81260256743332
2024-12-18,9.848730861501725
2024-12-19,9.937233339810394
2024-12-20,10.284532471672087
2024-12-23,10.346776094854075
2024-12-24,10.404082895570948
2024-12-26,10.465801126421791
2024-12-27,10.097093629086785
2024-12-30,9.983472709215608
2024-12-31,9.645767106744728
2025-01-02,9.92594794523501
2025-01-03,10.064399253271713
2025-01-06,9.969591296879607
2025-01-07,9.202399773355062
2025-01-08,9.202399773355062
2025-01-10,9.202399773355062
2025-01-13,9.322530112518653
2025-01-14,9.31738665616125
2025-01-15,9.368329824312744
2025-01-16,9.415530693093425
2025-01-17,9.646990967459391
2025-01-21,9.656874475286566
2025-01-22,9.692523117216997
2025-01-23,9.703394416734833
2025-01-24,9.707713751630664
2025-01-27,9.299273194015168
2025-01-28,9.299273194015168
2025-01-29,9.299273194015168
2025-01-30,9.299273194015168
2025-01-31,9.299273194015168
2025-02-03,9.482618207555374
2025-02-04,10.162989611754217
2025-02-05,10.012471785450295
2025-02-06,10.381583706496647
2025-02-07,10.336817214055563
2025-02-10,10.56218666456603
2025-02-11,10.385082789087974
2025-02-12,10.556826056576522
2025-02-13,11.109941313930536
2025-02-14,11.146209930131842
2025-02-18,11.8315890838097
2025-02-19,11.710673222211039
2025-02-20,11.710673222211039
2025-02-21,11.710673222211039
2025-02-24,11.739661174319261
2025-02-25,11.528830253996635
2025-02-26,11.500240352082555
2025-02-27,11.541121033061746
2025-02-28,11.60311063868691
2025-03-03,11.632230325773293
2025-03-04,11.514974614250272
2025-03-05,11.525286433155186
2025-03-06,11.541317911597979
2025-03-07,11.577924079592522
2025-03-10,11.566968947661772
2025-03-11,11.566968947661772
2025-03-12,11.566968947661772
2025-03-13,11.566968947661772
2025-03-14,11.566968947661772
2025-03-17,11.566968947661772
2025-03-18,11.566968947661772
2025-03-19,11.566968947661772
2025-03-20,11.566968947661772
2025-03-21,11.566968947661772
2025-03-24,11.566968947661772
2025-03-25,11.566968947661772
2025-03-26,11.566968947661772
2025-03-27,11.566968947661772
2025-03-28,11.566968947661772
2025-03-31,11.566968947661772
2025-04-01,11.566968947661772
2025-04-02,11.566968947661772
2025-04-03,11.566968947661772
2025-04-04,11.566968947661772
2025-04-07,11.566968947661772
2025-04-08,11.566968947661772
2025-04-09,11.566968947661772
2025-04-10,11.566968947661772
2025-04-11,11.566968947661772
2025-04-14,11.566968947661772
2025-04-15,11.566968947661772
2025-04-16,11.566968947661772
2025-04-17,11.566968947661772
2025-04-21,11.566968947661772
2025-04-22,11.566968947661772
2025-04-23,11.566968947661772
2025-04-24,11.566968947661772
2025-04-25,11.566968947661772
2025-04-28,11.566968947661772
2025-04-29,11.566968947661772
2025-04-30,11.566968947661772
2025-05-01,11.566968947661772
2025-05-02,11.566968947661772
2025-05-05,11.566968947661772
2025-05-06,11.566968947661772
2025-05-07,11.566968947661772
2025-05-08,11.566968947661772
2025-05-09,11.566968947661772
2025-05-12,11.566968947661772
2025-05-13,11.566968947661772
2025-05-14,11.566968947661772
2025-05-15,11.566968947661772
2025-05-16,11.566968947661772
2025-05-19,11.650466591433194
2025-05-20,11.618081490548446
2025-05-21,11.436878781370954
2025-05-22,11.52525328379574
2025-05-23,11.35199965698368
2025-05-27,11.462055376324251
2025-05-28,11.46919473949648
2025-05-29,11.390690319481811
2025-05-30,11.869371219437674
2025-06-02,11.949157812171956
2025-06-03,12.021373901642196
2025-06-04,11.811258988670271
2025-06-05,11.320314801936947
2025-06-06,11.05791708232378
2025-06-09,10.747239727275023
2025-06-10,10.712230089207662
2025-06-11,10.744168458517546
2025-06-12,10.575991085514513
2025-06-13,10.585461174362965
2025-06-16,10.591265872293718
2025-06-17,10.563302406849626
2025-06-18,10.592880808808243
2025-06-20,10.411906048635018
2025-06-23,10.593468250820553
2025-06-24,10.753402533825446
2025-06-25,10.70894887299879
2025-06-26,10.793106523421544
2025-06-27,10.758321824879168
2025-06-30,10.933363633047136
2025-07-01,10.820680034842603
2025-07-02,11.120205060703647
2025-07-03,11.394394817760013
2025-07-07,11.286054184015313
2025-07-08,11.28468217462174
2025-07-09,11.38987382194173
2025-07-10,11.012413823504474
2025-07-11,10.891854531802732
2025-07-14,10.903888409424685
2025-07-15,11.387094092973808
2025-07-16,11.70440751945468
2025-07-17,11.894766306491224
2025-07-18,11.689066555678478
2025-07-21,11.643770350200263
2025-07-22,11.429410298195204
2025-07-23,11.665734362148864
2025-07-24,11.816623201521384
2025-07-25,12.032655520990826
2025-07-28,12.361156025103273
2025-07-29,12.555576805087203
2025-07-30,12.647147610650773
2025-07-31,12.60429700877752
2025-08-01,12.16169960262343
2025-08-04,12.357020761571732
2025-08-05,12.168780550536695
2025-08-06,11.387156901179717
2025-08-07,11.387156901179717
2025-08-08,11.387156901179717
2025-08-11,11.339228633558026
2025-08-12,11.496611097988064
2025-08-13,11.843538103773387
2025-08-14,11.507545225340369
2025-08-15,11.286613028018522
2025-08-18,11.302678450526237
2025-08-19,10.835788301545247
2025-08-20,10.737866662958908
2025-08-21,10.737866662958908
2025-08-22,10.737866662958908
2025-08-25,10.856046460260565
2025-08-26,11.095667632593877
2025-08-27,10.98112977185931
2025-08-28,11.297822183310913
2025-08-29,11.224984555639232
2025-09-02,11.177827889335408
2025-09-03,11.29136863717969
2025-09-04,11.633309861004166
2025-09-05,11.578366933085235
2025-09-08,12.248087717539928
2025-09-09,12.277761316564558
2025-09-10,12.339595817214569
2025-09-11,12.498638814867167
2025-09-12,12.566051342389862
2025-09-15,12.873925065641059
2025-09-16,12.977972287666635
2025-09-17,13.038021771653002
2025-09-18,13.3809580680573
2025-09-19,13.76863118727714
2025-09-22,13.840084836088664
2025-09-23,13.65985111446528
2025-09-24,13.504595169994811
2025-09-25,13.361837842663624
2025-09-26,13.72704252872906
2025-09-29,14.23883783792545
2025-09-30,14.164433675550537
2025-10-01,14.373105259474928
2025-10-02,14.342748280903557
2025-10-03,14.256332040281464
2025-10-06,13.980684887031586
2025-10-07,14.074084371669684
2025-10-08,14.115953593363308
2025-10-09,14.175536054992602
2025-10-10,13.945257178567216
2025-10-13,13.9623462313937
2025-10-14,13.640381965656776
2025-10-15,14.29035599087872
2025-10-16,14.162325792654485
2025-10-17,14.115423875428093
2025-10-20,14.259715455959348
2025-10-21,14.035753135251813
2025-10-22,13.486786792866273
2025-10-23,13.637634244564925
2025-10-24,14.205846041870346
2025-10-27,14.60520399358122
2025-10-28,14.873499097196703
2025-10-29,15.043144147741078
2025-10-30,14.552117290016456
2025-10-31,14.5652677521066
2025-11-03,14.598119125608548
2025-11-04,13.952411475133914
2025-11-05,14.151427770776696
2025-11-06,13.518431427072056
2025-11-07,13.518431427072056
2025-11-10,13.86064069436862
2025-11-11,13.482397828481918
2025-11-12,13.473342130685616
2025-11-13,12.991709569102413
2025-11-14,13.288379058910177
2025-11-17,12.8138656799873
2025-11-18,12.469318809938503
2025-11-19,12.469318809938503
2025-11-20,12.469318809938503
2025-11-21,12.469318809938503
2025-11-24,12.553819626514919
2025-11-25,12.708758939014238
2025-11-26,12.662661794927875
2025-11-28,12.646813496535643
2025-12-01,12.470275970558227
2025-12-02,12.446186943899335
2025-12-03,12.397516166202873
2025-12-04,12.377377005146059
2025-12-05,12.413947455873931
2025-12-08,12.097841468516497
2025-12-09,12.161103564315667
2025-12-10,12.233889875764232
2025-12-11,11.968085685176186
2025-12-12,11.799789972720413
2025-12-15,11.764832026224813
2025-12-16,11.709405988228262
2025-12-17,11.590836732404295
2025-12-18,11.649504399277145
2025-12-19,11.68214748097396
2025-12-22,11.699438084731506
2025-12-23,11.706337319455487
2025-12-24,11.933255850695803
2025-12-26,11.905741606346348
2025-12-29,12.124310950101743
2025-12-30,12.052848394000282
2025-12-31,11.866255526223972
2026-01-02,12.636152012431227
2026-01-05,12.740092753380308
2026-01-06,13.534798905389613
2026-01-07,13.409749689241046
2026-01-08,13.02548134656483
2026-01-09,13.628009253419572
2026-01-12,13.712534070587772
2026-01-13,13.521752183307358
2026-01-14,13.38692155954186
2026-01-15,13.649332344133144
2026-01-16,14.29239744924966
2026-01-20,14.24163888118843
2026-01-21,14.831742293126803
2026-01-22,14.939071451828985
2026-01-23,15.023255927475853
2026-01-26,14.766480791074807
2026-01-27,15.363788571003862
2026-01-28,15.940306273246987
2026-01-29,16.00261437357492
2026-01-30,15.345671892182489
2026-02-02,15.900098873622587
2026-02-03,15.401464053988922
2026-02-04,14.850775383434648
2026-02-05,14.850775383434648
2026-02-06,14.850775383434648
2026-02-09,14.882557282553245
2026-02-10,14.739307833773681
2026-02-11,15.238993078130399
2026-02-12,15.212303015880835
2026-02-13,15.25851328970866
2026-02-17,15.143463573073552
2026-02-18,15.42304091384193
2026-02-19,15.344159460269022
2026-02-20,15.57175765400022
2026-02-23,15.458578065113958
2026-02-24,15.46181003748637
2026-02-25,15.653778517224335
2026-02-26,15.353938551870588
2026-02-27,15.238849981156974
2026-03-02,15.194923581590189
2026-03-03,14.852938735813186
2026-03-04,14.852938735813186
2026-03-05,14.852938735813186
2026-03-06,14.852938735813186
2026-03-09,15.114745136962906
2026-03-10,15.100489519733777
2026-03-11,15.204813693277071
2026-03-12,14.788058761006958
2026-03-13,14.710203940902016
2026-03-16,14.57371903368844
2026-03-17,14.718836394188685
2026-03-18,14.524907030052058
2026-03-19,14.380930560797928
2026-03-20,14.204712264506368
2026-03-23,14.231511898427021
2026-03-24,14.231511898427021
2026-03-25,14.231511898427021
2026-03-26,14.231511898427021
2026-03-27,14.231511898427021
2026-03-30,14.231511898427021
2026-03-31,14.231511898427021
2026-04-01,14.231511898427021
2026-04-02,14.231511898427021
2026-04-06,14.231511898427021
2026-04-07,14.231511898427021
2026-04-08,14.231511898427021
2026-04-09,14.231511898427021
2026-04-10,14.231511898427021
2026-04-13,14.64764251064074
2026-04-14,14.629378004279884
2026-04-15,14.800850217921983
2026-04-16,15.140907140226815
2026-04-17,15.486922599902128
2026-04-20,15.612701596012911
2026-04-21,15.86676733318888
2026-04-22,16.082516403173017
2026-04-23,16.706451076586653
2026-04-24,18.441557950657682
2026-04-27,18.387961014305482
2026-04-28,17.903254316293285
2026-04-29,19.0739556171988
2026-04-30,19.043057736694806
2026-05-01,19.63126907565165
2026-05-04,18.833925198259497
2026-05-05,20.46565901212967
2026-05-06,22.124194863863067
2026-05-07,20.708252264631845
2026-05-08,21.31266851995793
2026-05-11,21.600986309289937
2026-05-12,21.228807186535562
2026-05-13,21.455825960449225
2026-05-14,21.418893292593374
2026-05-15,21.09652300422234
2026-05-18,20.35782693520099
2026-05-19,20.70152638828995
2026-05-20,20.543522668803632
2026-05-21,20.85844476375722
2026-05-22,21.09083680239889
2026-05-26,21.32046663336717
2026-05-27,20.970631528679355
