Date,Value
2018-01-02,1.0
2018-01-03,1.0
2018-01-04,1.0
2018-01-05,1.0
2018-01-08,1.0243276923826679
2018-01-09,1.022997488831695
2018-01-10,1.0227144537262602
2018-01-11,1.0309464361703433
2018-01-12,1.041074869854905
2018-01-16,1.0380035726052617
2018-01-17,1.0676602262644277
2018-01-18,1.0571725143340118
2018-01-19,1.0643338022204918
2018-01-22,1.0869617443064148
2018-01-23,1.0938498536250458
2018-01-24,1.0611631263597683
2018-01-25,1.0679594074786394
2018-01-26,1.101178943193284
2018-01-29,1.133671267576619
2018-01-30,1.1167630444762953
2018-01-31,1.101777933104929
2018-02-01,1.0791644289715236
2018-02-02,1.0678317305569232
2018-02-05,1.0341163624210084
2018-02-06,1.0341163624210084
2018-02-07,1.0341163624210084
2018-02-08,1.0341163624210084
2018-02-09,1.0341163624210084
2018-02-12,1.0498024859259163
2018-02-13,1.0461887088646837
2018-02-14,1.0782271899500013
2018-02-15,1.0936765266985136
2018-02-16,1.0910015404271307
2018-02-20,1.1020402249879937
2018-02-21,1.083877452203378
2018-02-22,1.0835878020158662
2018-02-23,1.0974880310147412
2018-02-26,1.1043959485809336
2018-02-27,1.103670477464248
2018-02-28,1.1056132034652917
2018-03-01,1.1017465366226653
2018-03-02,1.1124669751192378
2018-03-05,1.1320961999908254
2018-03-06,1.147229946643523
2018-03-07,1.1476170311569238
2018-03-08,1.1511724903906089
2018-03-09,1.1696477081408718
2018-03-12,1.1571330344859836
2018-03-13,1.1456418789616902
2018-03-14,1.153405532489959
2018-03-15,1.1553661327194686
2018-03-16,1.152260834360124
2018-03-19,1.14381010563347
2018-03-20,1.1636366124328057
2018-03-21,1.1548118304907995
2018-03-22,1.1365018580665815
2018-03-23,1.1221365485196482
2018-03-26,1.1203634353837613
2018-03-27,1.108128755733509
2018-03-28,1.1023425322769898
2018-03-29,1.1023425322769898
2018-04-02,1.0878498887794361
2018-04-03,1.098752733805981
2018-04-04,1.1074900950546696
2018-04-05,1.120533970776345
2018-04-06,1.1081366692701538
2018-04-09,1.1031228147778034
2018-04-10,1.1106085477444174
2018-04-11,1.1099624436355704
2018-04-12,1.123944020126866
2018-04-13,1.114611684422287
2018-04-16,1.1200021320069733
2018-04-17,1.1304903788180884
2018-04-18,1.1317365657498712
2018-04-19,1.1236365478043635
2018-04-20,1.1200343490536744
2018-04-23,1.1180480603151255
2018-04-24,1.1183828272855156
2018-04-25,1.1169070278375668
2018-04-26,1.1306497499133754
2018-04-27,1.1270448004596376
2018-04-30,1.1211880024800291
2018-05-01,1.132770420906098
2018-05-02,1.131267932893223
2018-05-03,1.1261004159357013
2018-05-04,1.133361092516017
2018-05-07,1.1411800886487944
2018-05-08,1.147780995319173
2018-05-09,1.158954194608657
2018-05-10,1.1612834651160326
2018-05-11,1.1541388829211994
2018-05-14,1.1519877977824569
2018-05-15,1.1500098800081868
2018-05-16,1.1501035078857231
2018-05-17,1.1513826834621073
2018-05-18,1.1470073557988283
2018-05-21,1.1589847623300389
2018-05-22,1.1560524730631505
2018-05-23,1.1642471781000565
2018-05-24,1.1650423149553437
2018-05-25,1.1689567623779027
2018-05-29,1.166108119340532
2018-05-30,1.1708256209080887
2018-05-31,1.1658322043833054
2018-06-01,1.1775977998807075
2018-06-04,1.17457269149252
2018-06-05,1.1664862452848783
2018-06-06,1.1678197742999044
2018-06-07,1.1551487359711223
2018-06-08,1.150698036784807
2018-06-11,1.167503158657081
2018-06-12,1.1736458243769536
2018-06-13,1.1925297807869266
2018-06-14,1.1926197791586497
2018-06-15,1.1937144816811993
2018-06-18,1.2170966069526972
2018-06-19,1.2012277632629245
2018-06-20,1.1948046581488434
2018-06-21,1.161933456196719
2018-06-22,1.167600920961714
2018-06-25,1.110593206155555
2018-06-26,1.1212919896998172
2018-06-27,1.1148339762554431
2018-06-28,1.1184432855677713
2018-06-29,1.1155802381415783
2018-07-02,1.1011342760930838
2018-07-03,1.0832263738934742
2018-07-05,1.0888735806280507
2018-07-06,1.0959487115658377
2018-07-09,1.099690672693157
2018-07-10,1.0953188359271957
2018-07-11,1.0882685627105757
2018-07-12,1.0941196253391654
2018-07-13,1.0718723435295225
2018-07-16,1.0854354197392926
2018-07-17,1.0764510351399459
2018-07-18,1.0757926375553324
2018-07-19,1.0711839172512874
2018-07-20,1.0642709309775942
2018-07-23,1.0548862828843744
2018-07-24,1.025069268920854
2018-07-25,1.0371754986716548
2018-07-26,1.1111330195848885
2018-07-27,1.117785573332105
2018-07-30,1.117805795250881
2018-07-31,1.0814499626166403
2018-08-01,1.0908906976809147
2018-08-02,1.0894267284552988
2018-08-03,1.079550953050845
2018-08-06,1.105774219841663
2018-08-07,1.1116910110342744
2018-08-08,1.086677414091177
2018-08-09,1.0708762487899504
2018-08-10,1.0695594536207234
2018-08-13,1.0860021531356405
2018-08-14,1.1040723747780032
2018-08-15,1.0897961687780455
2018-08-16,1.0803186805478269
2018-08-17,1.0995153763777181
2018-08-20,1.1081608114730421
2018-08-21,1.1219175340521728
2018-08-22,1.1484945917119207
2018-08-23,1.2067258718943659
2018-08-24,1.276080167171146
2018-08-27,1.3223052246040474
2018-08-28,1.3225991689845067
2018-08-29,1.3278835989932414
2018-08-30,1.305759368444437
2018-08-31,1.327242460658562
2018-09-04,1.4340900849991494
2018-09-05,1.4377467420707906
2018-09-06,1.4614968763657683
2018-09-07,1.4552934881249384
2018-09-10,1.5612046177387775
2018-09-11,1.5783044214609907
2018-09-12,1.6281524536636724
2018-09-13,1.5660742945693151
2018-09-14,1.64528773617231
2018-09-17,1.632899970985162
2018-09-18,1.6301613731593592
2018-09-19,1.6025788939772618
2018-09-20,1.5959089303684473
2018-09-21,1.5845436744491486
2018-09-24,1.6434683738233211
2018-09-25,1.654348033162016
2018-09-26,1.6372650399405837
2018-09-27,1.629781980133294
2018-09-28,1.5819966017590414
2018-10-01,1.5808025947826072
2018-10-02,1.4744482497796678
2018-10-03,1.4406995304937245
2018-10-04,1.4406995304937245
2018-10-05,1.4406995304937245
2018-10-08,1.4402216421601461
2018-10-09,1.4450209245968697
2018-10-10,1.418122013172818
2018-10-11,1.418122013172818
2018-10-12,1.418122013172818
2018-10-15,1.420511971882834
2018-10-16,1.4271787473445556
2018-10-17,1.4352919406544473
2018-10-18,1.432398877627744
2018-10-19,1.432524648150838
2018-10-22,1.43329736837195
2018-10-23,1.435162477036683
2018-10-24,1.429561501887354
2018-10-25,1.4411891239951207
2018-10-26,1.4347076415189532
2018-10-29,1.440643683762349
2018-10-30,1.440643683762349
2018-10-31,1.440643683762349
2018-11-01,1.440643683762349
2018-11-02,1.440643683762349
2018-11-05,1.440643683762349
2018-11-06,1.440643683762349
2018-11-07,1.440643683762349
2018-11-08,1.440643683762349
2018-11-09,1.440643683762349
2018-11-12,1.440643683762349
2018-11-13,1.440643683762349
2018-11-14,1.440643683762349
2018-11-15,1.440643683762349
2018-11-16,1.440643683762349
2018-11-19,1.440643683762349
2018-11-20,1.440643683762349
2018-11-21,1.440643683762349
2018-11-23,1.440643683762349
2018-11-26,1.440643683762349
2018-11-27,1.440643683762349
2018-11-28,1.440643683762349
2018-11-29,1.440643683762349
2018-11-30,1.440643683762349
2018-12-03,1.440643683762349
2018-12-04,1.440643683762349
2018-12-06,1.440643683762349
2018-12-07,1.440643683762349
2018-12-10,1.440643683762349
2018-12-11,1.440643683762349
2018-12-12,1.440643683762349
2018-12-13,1.440643683762349
2018-12-14,1.440643683762349
2018-12-17,1.440643683762349
2018-12-18,1.440643683762349
2018-12-19,1.440643683762349
2018-12-20,1.440643683762349
2018-12-21,1.440643683762349
2018-12-24,1.440643683762349
2018-12-26,1.440643683762349
2018-12-27,1.440643683762349
2018-12-28,1.440643683762349
2018-12-31,1.440643683762349
2019-01-02,1.440643683762349
2019-01-03,1.440643683762349
2019-01-04,1.440643683762349
2019-01-07,1.440643683762349
2019-01-08,1.440643683762349
2019-01-09,1.440643683762349
2019-01-10,1.440643683762349
2019-01-11,1.440643683762349
2019-01-14,1.440643683762349
2019-01-15,1.440643683762349
2019-01-16,1.440643683762349
2019-01-17,1.440643683762349
2019-01-18,1.440643683762349
2019-01-22,1.440643683762349
2019-01-23,1.440643683762349
2019-01-24,1.440643683762349
2019-01-25,1.440643683762349
2019-01-28,1.440643683762349
2019-01-29,1.440643683762349
2019-01-30,1.440643683762349
2019-01-31,1.440643683762349
2019-02-01,1.440643683762349
2019-02-04,1.440643683762349
2019-02-05,1.440643683762349
2019-02-06,1.440643683762349
2019-02-07,1.440643683762349
2019-02-08,1.440643683762349
2019-02-11,1.440643683762349
2019-02-12,1.440643683762349
2019-02-13,1.440643683762349
2019-02-14,1.440643683762349
2019-02-15,1.440643683762349
2019-02-19,1.4354093129968097
2019-02-20,1.4463455699253438
2019-02-21,1.451647085897535
2019-02-22,1.4754805250860255
2019-02-25,1.4892615260869029
2019-02-26,1.4107164301811954
2019-02-27,1.4053021595987039
2019-02-28,1.400883047787787
2019-03-01,1.4035104069905424
2019-03-04,1.3777799751443554
2019-03-05,1.3551667155295073
2019-03-06,1.3535798680188798
2019-03-07,1.3640877169444394
2019-03-08,1.3797917645801432
2019-03-11,1.4121236040396616
2019-03-12,1.415703217384127
2019-03-13,1.4289823869713127
2019-03-14,1.4536931496721688
2019-03-15,1.4565799218390658
2019-03-18,1.4867373867803555
2019-03-19,1.498024875984933
2019-03-20,1.5187436060339645
2019-03-21,1.6029304334335996
2019-03-22,1.5481095250051025
2019-03-25,1.559891214859879
2019-03-26,1.5933687498080897
2019-03-27,1.557392841483086
2019-03-28,1.5724555095406327
2019-03-29,1.5753913349520374
2019-04-01,1.5779817826376301
2019-04-02,1.5632249661578395
2019-04-03,1.5550250346791143
2019-04-04,1.4389260677427045
2019-04-05,1.4168558494532015
2019-04-08,1.397186112941351
2019-04-09,1.3654287586363347
2019-04-10,1.3799534335107613
2019-04-11,1.3789687344618762
2019-04-12,1.3804458065128409
2019-04-15,1.3768629103647494
2019-04-16,1.3595377114775715
2019-04-17,1.3199882009764217
2019-04-18,1.301870036673314
2019-04-22,1.3308112253961786
2019-04-23,1.3625585513187761
2019-04-24,1.3754763521714288
2019-04-25,1.3421030067210034
2019-04-26,1.3597210660627628
2019-04-29,1.359784773852025
2019-04-30,1.3496027510868083
2019-05-01,1.3312814886600788
2019-05-02,1.3737006911941418
2019-05-03,1.388687433112144
2019-05-06,1.3609098626534535
2019-05-07,1.3184953974103522
2019-05-08,1.3239514481073906
2019-05-09,1.3209988903666197
2019-05-10,1.355473022164547
2019-05-13,1.29797451687601
2019-05-14,1.3153836256819427
2019-05-15,1.3163941728831796
2019-05-16,1.2895806797104012
2019-05-17,1.2773007878117701
2019-05-20,1.2699919171986365
2019-05-21,1.2743746056973637
2019-05-22,1.280871621425789
2019-05-23,1.2621037335444358
2019-05-24,1.2683815966843859
2019-05-28,1.2781380063981487
2019-05-29,1.2538927125882422
2019-05-30,1.2666320924982497
2019-05-31,1.2447407988588113
2019-06-03,1.2440076118156613
2019-06-04,1.2440076118156613
2019-06-05,1.2440076118156613
2019-06-06,1.2440076118156613
2019-06-07,1.2440076118156613
2019-06-10,1.2394816317472284
2019-06-11,1.2057531822760192
2019-06-12,1.2245336432370537
2019-06-13,1.2205067639695693
2019-06-14,1.2121024505338034
2019-06-17,1.2110277109328245
2019-06-18,1.2127469955618664
2019-06-19,1.286262399544453
2019-06-20,1.2872793810093168
2019-06-21,1.2709719434810873
2019-06-24,1.2242509346123063
2019-06-25,1.1753283008549404
2019-06-26,1.156235646846951
2019-06-27,1.156235646846951
2019-06-28,1.156235646846951
2019-07-01,1.1381626237876739
2019-07-02,1.152528038211464
2019-07-03,1.154185293713325
2019-07-05,1.1605533971700075
2019-07-08,1.1840116082612802
2019-07-09,1.2060335037760543
2019-07-10,1.212108306934426
2019-07-11,1.1913207406890867
2019-07-12,1.1847192275033671
2019-07-15,1.2324051350054346
2019-07-16,1.2101645799042888
2019-07-17,1.2204739378686922
2019-07-18,1.2204843229913216
2019-07-19,1.2094189943217084
2019-07-22,1.2254184306504419
2019-07-23,1.227652995274196
2019-07-24,1.2377103447167062
2019-07-25,1.2367712031507851
2019-07-26,1.2491309132035093
2019-07-29,1.207782149087512
2019-07-30,1.20473962687652
2019-07-31,1.1680737779147834
2019-08-01,1.2121163857874977
2019-08-02,1.194881540406262
2019-08-05,1.1721625855938491
2019-08-06,1.198328742723114
2019-08-07,1.215254296011361
2019-08-08,1.249400179684668
2019-08-09,1.2722352284354193
2019-08-12,1.2619195617662773
2019-08-13,1.2719033125512098
2019-08-14,1.2358544422694353
2019-08-15,1.2344933139775758
2019-08-16,1.2519128124078187
2019-08-19,1.2581329036238864
2019-08-20,1.2795748504411326
2019-08-21,1.3095391658083069
2019-08-22,1.3076463666320768
2019-08-23,1.2912836679459447
2019-08-26,1.3215774754817486
2019-08-27,1.3409771736608915
2019-08-28,1.3211609194723257
2019-08-29,1.3173136264718535
2019-08-30,1.3019610333201113
2019-09-03,1.2998355309189997
2019-09-04,1.3026349488487452
2019-09-05,1.312611116671297
2019-09-06,1.2901235762652807
2019-09-09,1.247823175770081
2019-09-10,1.2439172230430697
2019-09-11,1.2439172230430697
2019-09-12,1.2439172230430697
2019-09-13,1.2439172230430697
2019-09-16,1.261862477972712
2019-09-17,1.2764223802092598
2019-09-18,1.2943954327191902
2019-09-19,1.2829299758084263
2019-09-20,1.2674510521673616
2019-09-23,1.2816724331729628
2019-09-24,1.2634695542674468
2019-09-25,1.2926245631349393
2019-09-26,1.2873858571704797
2019-09-27,1.2465706945740131
2019-09-30,1.2525044473028377
2019-10-01,1.2466744049399412
2019-10-02,1.2298755592881863
2019-10-03,1.2392904858302805
2019-10-04,1.2623848410108391
2019-10-07,1.2605957869411704
2019-10-08,1.2272512751818883
2019-10-09,1.2470173541743814
2019-10-10,1.24871067676965
2019-10-11,1.2638629112474002
2019-10-14,1.2576598180423768
2019-10-15,1.2803969323578124
2019-10-16,1.2582667354513055
2019-10-17,1.2679088181279838
2019-10-18,1.2570328799286563
2019-10-21,1.2815315684751378
2019-10-22,1.2717662864636665
2019-10-23,1.252269836632767
2019-10-24,1.338287021516356
2019-10-25,1.3493608173554925
2019-10-28,1.3848399929714246
2019-10-29,1.359547282960114
2019-10-30,1.372208698997892
2019-10-31,1.3469451643840222
2019-11-01,1.370903657248265
2019-11-04,1.377375129137559
2019-11-05,1.3686419866815132
2019-11-06,1.3675788761406165
2019-11-07,1.3632904580249443
2019-11-08,1.370792987121432
2019-11-11,1.3697799888486966
2019-11-12,1.3680371761356822
2019-11-13,1.3794410089149785
2019-11-14,1.384065747055463
2019-11-15,1.4046211202872918
2019-11-18,1.3996743929781066
2019-11-19,1.387346954117929
2019-11-20,1.3740204502624422
2019-11-21,1.334563777169027
2019-11-22,1.3329544413568888
2019-11-25,1.3224012394366156
2019-11-26,1.2945405696464416
2019-11-27,1.306214610222633
2019-11-29,1.2992145905756145
2019-12-02,1.3016706363206987
2019-12-03,1.3071134522063534
2019-12-04,1.3143069643513994
2019-12-05,1.3079771271256102
2019-12-06,1.3188305879324522
2019-12-09,1.3140652236838402
2019-12-10,1.3406911403748327
2019-12-11,1.3486688705454628
2019-12-12,1.4148228541016667
2019-12-13,1.3880290618457762
2019-12-16,1.4530088457988786
2019-12-17,1.4552370806291752
2019-12-18,1.474715343088711
2019-12-19,1.5047370890550549
2019-12-20,1.5300094419536965
2019-12-23,1.578495501900155
2019-12-24,1.6083900819292327
2019-12-26,1.6209223980386076
2019-12-27,1.6122456198961057
2019-12-30,1.5707588582611223
2019-12-31,1.5835219368911062
2020-01-02,1.66128202565492
2020-01-03,1.677524939982833
2020-01-06,1.6904926042678186
2020-01-07,1.7220426898622838
2020-01-08,1.759630572014039
2020-01-09,1.7579607260915644
2020-01-10,1.7382877639446264
2020-01-13,1.838487425044815
2020-01-14,1.8546554407858942
2020-01-15,1.8228022227833556
2020-01-16,1.8336895975537115
2020-01-17,1.847474551331159
2020-01-21,1.9205370154937373
2020-01-22,1.9702295472982518
2020-01-23,1.9800639558338915
2020-01-24,1.9428318916134248
2020-01-27,1.8908620373735072
2020-01-28,1.9080504330468528
2020-01-29,1.9353235499494699
2020-01-30,2.051113210796444
2020-01-31,2.0700049510177947
2020-02-03,2.322507736894948
2020-02-04,2.5575606663664896
2020-02-05,2.3730889880950126
2020-02-06,2.368621920283153
2020-02-07,2.3785083452288216
2020-02-10,2.4370781157436854
2020-02-11,2.4405251106872696
2020-02-12,2.498320780783811
2020-02-13,2.529906123461865
2020-02-14,2.531106771063164
2020-02-18,2.575348216771892
2020-02-19,2.613513048470816
2020-02-20,2.561021208430865
2020-02-21,2.42526276196445
2020-02-24,2.44346775859305
2020-02-25,2.387448306694786
2020-02-26,2.4059522756116576
2020-02-27,2.331246442687424
2020-02-28,2.3704730476229336
2020-03-02,2.4112254927854027
2020-03-03,2.383270166773816
2020-03-04,2.4678761238170592
2020-03-05,2.435565843736358
2020-03-06,2.4276774013944875
2020-03-09,2.3321372542064682
2020-03-10,2.3321372542064682
2020-03-11,2.3321372542064682
2020-03-12,2.3321372542064682
2020-03-13,2.3321372542064682
2020-03-16,2.3321372542064682
2020-03-17,2.3321372542064682
2020-03-18,2.3321372542064682
2020-03-19,2.3321372542064682
2020-03-20,2.3321372542064682
2020-03-23,2.3321372542064682
2020-03-24,2.3321372542064682
2020-03-25,2.3321372542064682
2020-03-26,2.3321372542064682
2020-03-27,2.3321372542064682
2020-03-30,2.3321372542064682
2020-03-31,2.3321372542064682
2020-04-01,2.3321372542064682
2020-04-02,2.3321372542064682
2020-04-03,2.3321372542064682
2020-04-06,2.3321372542064682
2020-04-07,2.3321372542064682
2020-04-08,2.3321372542064682
2020-04-09,2.3321372542064682
2020-04-13,2.3140985228640756
2020-04-14,2.4352355781747015
2020-04-15,2.517327887777875
2020-04-16,2.5575674851804924
2020-04-17,2.540328120063969
2020-04-20,2.660238906277753
2020-04-21,2.5156954520211166
2020-04-22,2.587420143426166
2020-04-23,2.592102634577265
2020-04-24,2.6771793000709962
2020-04-27,2.7634511186396145
2020-04-28,2.6253743654564943
2020-04-29,2.6066458593093547
2020-04-30,2.5822741767139314
2020-05-01,2.609246298040565
2020-05-04,2.7347117835653725
2020-05-05,2.7368857065074805
2020-05-06,2.7778389591452237
2020-05-07,2.8817856486554154
2020-05-08,2.890445624499754
2020-05-11,2.9345545283601773
2020-05-12,2.923655424714796
2020-05-13,2.9085995573176424
2020-05-14,2.928438983092571
2020-05-15,2.9424659929111865
2020-05-18,2.8745573281435695
2020-05-19,2.9498640475759093
2020-05-20,3.031672108462394
2020-05-21,2.998183059366436
2020-05-22,3.054616949755128
2020-05-26,2.989265366876809
2020-05-27,2.9256713138559487
2020-05-28,2.979164986818892
2020-05-29,3.552290682379216
2020-06-01,3.9102261813354953
2020-06-02,3.78874848901435
2020-06-03,3.9289497020485356
2020-06-04,3.8069019580572854
2020-06-05,3.6975558144780587
2020-06-08,3.7901969925280925
2020-06-09,3.7749213320700936
2020-06-10,3.8804709488341604
2020-06-11,3.7812632244710467
2020-06-12,3.738836820667959
2020-06-15,3.8947987397693193
2020-06-16,3.904259170234755
2020-06-17,3.9184045736379236
2020-06-18,4.102260731073708
2020-06-19,4.009993190475946
2020-06-22,4.109243979310314
2020-06-23,4.105824358749567
2020-06-24,4.057020008979208
2020-06-25,4.158457200663954
2020-06-26,3.9171359449996412
2020-06-29,3.8921513341353755
2020-06-30,4.011052305760459
2020-07-01,4.101146705039009
2020-07-02,4.164316583523
2020-07-06,4.2298761345274265
2020-07-07,4.2133552476848966
2020-07-08,4.504507035646347
2020-07-09,4.68251488595473
2020-07-10,4.631253485340607
2020-07-13,4.319710466899391
2020-07-14,4.247547760664526
2020-07-15,4.200365722396562
2020-07-16,4.151362153381182
2020-07-17,4.20892772301946
2020-07-20,4.506388037694238
2020-07-21,4.368464141249682
2020-07-22,4.393738141759332
2020-07-23,4.258422835935024
2020-07-24,4.056622007792881
2020-07-27,4.234781407888135
2020-07-28,4.169312420922352
2020-07-29,4.303194570011574
2020-07-30,4.383159038101477
2020-07-31,4.424708322408056
2020-08-03,4.562330924286918
2020-08-04,4.563090244296929
2020-08-05,4.694588192390736
2020-08-06,4.643547558559721
2020-08-07,4.478823464297322
2020-08-10,4.226960249119385
2020-08-11,4.182465676518461
2020-08-12,4.20376078173687
2020-08-13,4.286908765385361
2020-08-14,4.285791628989093
2020-08-17,4.551043001857088
2020-08-18,4.651585720673537
2020-08-19,4.647552272449318
2020-08-20,4.8168499412545005
2020-08-21,4.849445844185916
2020-08-24,4.821388902790604
2020-08-25,4.854952349160844
2020-08-26,5.007160484948723
2020-08-27,5.090626546360105
2020-08-28,5.0168232740977965
2020-08-31,5.311856338709534
2020-09-01,5.1622094214816165
2020-09-02,4.7570103947296625
2020-09-03,4.7570103947296625
2020-09-04,4.7570103947296625
2020-09-08,4.778561214417343
2020-09-09,4.905123592513231
2020-09-10,4.851254366232434
2020-09-11,4.813096752604138
2020-09-14,4.902324278652132
2020-09-15,4.939274520147227
2020-09-16,4.885643828865773
2020-09-17,4.85046810783027
2020-09-18,4.814022669542772
2020-09-21,4.858486470752723
2020-09-22,4.884194201475033
2020-09-23,4.773818518208631
2020-09-24,4.804257364779227
2020-09-25,4.883196662079123
2020-09-28,4.918967082921488
2020-09-29,4.942154739500076
2020-09-30,4.9921714848771614
2020-10-01,5.011214293761043
2020-10-02,4.927562080787828
2020-10-05,5.0045603870790885
2020-10-06,5.007215694505588
2020-10-07,5.078915496165484
2020-10-08,5.067408823109526
2020-10-09,5.088181020326593
2020-10-12,5.140518219047757
2020-10-13,5.141586150770387
2020-10-14,5.101362957494555
2020-10-15,5.068351819766306
2020-10-16,5.05639107664778
2020-10-19,5.007093951021563
2020-10-20,5.026813484116764
2020-10-21,5.005974016173693
2020-10-22,4.952710650428601
2020-10-23,4.975944555514915
2020-10-26,4.90773568471392
2020-10-27,4.904916328589629
2020-10-28,4.862820033507024
2020-10-29,4.910069005417981
2020-10-30,4.880125015288332
2020-11-02,4.901547679969529
2020-11-03,4.954436466480777
2020-11-04,4.974086366138676
2020-11-05,5.119575022323216
2020-11-06,5.142681822447164
2020-11-09,5.147418856278536
2020-11-10,5.132163858963576
2020-11-11,5.211992402448997
2020-11-12,5.156529714004499
2020-11-13,5.176805294052468
2020-11-16,5.265136096654961
2020-11-17,5.255025088072102
2020-11-18,5.215664278929118
2020-11-19,5.223934814540321
2020-11-20,5.191252259625843
2020-11-23,5.175825241943315
2020-11-24,5.220957726265193
2020-11-25,5.193845671566041
2020-11-27,5.2003881818091
2020-11-30,5.222352969398581
2020-12-01,5.268174202560388
2020-12-02,5.238324738662589
2020-12-03,5.241552580522198
2020-12-04,5.337539892007399
2020-12-07,5.339758262426097
2020-12-08,5.347067087301088
2020-12-09,5.314631487296776
2020-12-10,5.304978993150485
2020-12-11,5.230946757899506
2020-12-14,5.212047778265427
2020-12-15,5.194426926853569
2020-12-16,5.206946492449619
2020-12-17,5.4944333417110744
2020-12-18,5.539798999867322
2020-12-21,5.575358507245598
2020-12-22,5.663603591906949
2020-12-23,5.503604981121608
2020-12-24,5.531436172340628
2020-12-28,5.4141557641418165
2020-12-29,5.406698821318317
2020-12-30,5.408076461667237
2020-12-31,5.380126066063085
2021-01-04,5.269893071636204
2021-01-05,5.309242305604192
2021-01-06,5.183427586524596
2021-01-07,5.183427586524596
2021-01-08,5.183427586524596
2021-01-11,5.166383426194713
2021-01-12,5.298736972888074
2021-01-13,5.230813889837169
2021-01-14,5.192830987027087
2021-01-15,5.064541583652172
2021-01-19,5.14858147128851
2021-01-20,5.217688055655749
2021-01-21,5.139262843459479
2021-01-22,5.17349971861999
2021-01-25,5.207852714038273
2021-01-26,5.090961549740003
2021-01-27,4.984620766779828
2021-01-28,4.896958741262349
2021-01-29,4.769112455985941
2021-02-01,4.893518712729765
2021-02-02,5.044345045421997
2021-02-03,4.972638501680162
2021-02-04,5.0221549894537505
2021-02-05,5.023785853105501
2021-02-08,5.045244477917924
2021-02-09,5.01739383212357
2021-02-10,4.963909158166063
2021-02-11,5.02218325998324
2021-02-12,5.114935894433068
2021-02-16,5.057685704746712
2021-02-17,4.962234327283344
2021-02-18,4.969715101857904
2021-02-19,4.969172985575709
2021-02-22,4.77800781418215
2021-02-23,4.602236150713406
2021-02-24,4.602236150713406
2021-02-25,4.602236150713406
2021-02-26,4.602236150713406
2021-03-01,4.615072831569819
2021-03-02,4.52530891861378
2021-03-03,4.481653682798738
2021-03-04,4.362325632181403
2021-03-05,4.347119073442209
2021-03-08,4.235329506210847
2021-03-09,4.369757839658578
2021-03-10,4.307188892483877
2021-03-11,4.398494957087438
2021-03-12,4.351658569509237
2021-03-15,4.370594555427455
2021-03-16,4.437129158735047
2021-03-17,4.491477672678237
2021-03-18,4.376716296577237
2021-03-19,4.390771100102999
2021-03-22,4.443285460505903
2021-03-23,4.3427146157650345
2021-03-24,4.388189826948114
2021-03-25,4.374893872452299
2021-03-26,4.460834245018998
2021-03-29,4.449619908594682
2021-03-30,4.434387234447684
2021-03-31,4.508274644922031
2021-04-01,4.603678901042157
2021-04-05,4.687521090285189
2021-04-06,4.619673276424161
2021-04-07,4.6397794958884635
2021-04-08,4.669582902762571
2021-04-09,4.707360706012597
2021-04-12,4.570724713369496
2021-04-13,4.565090295535503
2021-04-14,4.520075403677213
2021-04-15,4.5514976088822365
2021-04-16,4.535570204809616
2021-04-19,4.451444528294157
2021-04-20,4.430783924188127
2021-04-21,4.430783924188127
2021-04-22,4.430783924188127
2021-04-23,4.430783924188127
2021-04-26,4.470090150824904
2021-04-27,4.449887094710062
2021-04-28,4.4509236367050455
2021-04-29,4.431752885678591
2021-04-30,4.392268494337861
2021-05-03,4.401088811067039
2021-05-04,4.285772845281116
2021-05-05,4.284491640418505
2021-05-06,4.318533913867518
2021-05-07,4.375986964675303
2021-05-10,4.1889165321216035
2021-05-11,4.193927937236392
2021-05-12,4.123797970016192
2021-05-13,4.123797970016192
2021-05-14,4.123797970016192
2021-05-17,4.12560886524213
2021-05-18,4.097699425053655
2021-05-19,4.103050554118883
2021-05-20,4.126584326379053
2021-05-21,4.120259806397342
2021-05-24,4.157089848339679
2021-05-25,4.16741172638175
2021-05-26,4.161935331987452
2021-05-27,4.182116930443909
2021-05-28,4.168285405462376
2021-06-01,4.175263747772229
2021-06-02,4.170810152888068
2021-06-03,4.155243784531118
2021-06-04,4.17468736703051
2021-06-07,4.166823910334017
2021-06-08,4.160438460006757
2021-06-09,4.143980996702975
2021-06-10,4.1512474136306174
2021-06-11,4.147301666212057
2021-06-14,4.178482235318402
2021-06-15,4.151739007679504
2021-06-16,4.135615919117904
2021-06-17,4.251608313205135
2021-06-18,4.226941992669432
2021-06-21,4.211083695284787
2021-06-22,4.286485660096965
2021-06-23,4.31136983684657
2021-06-24,4.337063302086289
2021-06-25,4.310893238563775
2021-06-28,4.468348949895606
2021-06-29,4.460857517245981
2021-06-30,4.444303592966102
2021-07-01,4.490541538882289
2021-07-02,4.523423272127486
2021-07-06,4.54161657384319
2021-07-07,4.496227488924395
2021-07-08,4.425972212444324
2021-07-09,4.4587460191512065
2021-07-12,4.521314708470484
2021-07-13,4.487381284088569
2021-07-14,4.425385968892197
2021-07-15,4.345631295787816
2021-07-16,4.3347810718781155
2021-07-19,4.320808659614393
2021-07-20,4.3574838955071025
2021-07-21,4.385270667968783
2021-07-22,4.416441331480738
2021-07-23,4.493023502487133
2021-07-26,4.503708822881598
2021-07-27,4.474554359861206
2021-07-28,4.492951249440114
2021-07-29,4.448984158829053
2021-07-30,4.452005021525932
2021-08-02,4.4323727662323105
2021-08-03,4.435822766911317
2021-08-04,4.473813477649948
2021-08-05,4.491355109650312
2021-08-06,4.485071141808475
2021-08-09,4.480859529322954
2021-08-10,4.46823269531195
2021-08-11,4.468935396364747
2021-08-12,4.487940754670101
2021-08-13,4.497959494120761
2021-08-16,4.513840049012419
2021-08-17,4.471835002718379
2021-08-18,4.4557312830358065
2021-08-19,4.476445321395858
2021-08-20,4.480474792527142
2021-08-23,4.520535223079508
2021-08-24,4.574871549937798
2021-08-25,4.580884403067534
2021-08-26,4.488832153013166
2021-08-27,4.549441277690573
2021-08-30,4.600574188830854
2021-08-31,4.62198784834867
2021-09-01,4.573981102433777
2021-09-02,4.6412104490001544
2021-09-03,4.700089730450728
2021-09-07,4.651564231222375
2021-09-08,4.67115232383496
2021-09-09,4.690346498070211
2021-09-10,4.5482642550183705
2021-09-13,4.49396893423253
2021-09-14,4.543449348223988
2021-09-15,4.560399483864513
2021-09-16,4.646519371248438
2021-09-17,4.629226998624989
2021-09-20,4.607846134696033
2021-09-21,4.659978714260429
2021-09-22,4.767624950944308
2021-09-23,4.7550680248474375
2021-09-24,4.738063057339622
2021-09-27,4.5891568775096365
2021-09-28,4.4653680200488575
2021-09-29,4.466288578996888
2021-09-30,4.551361132541956
2021-10-01,4.615484576536647
2021-10-04,4.4357470100730465
2021-10-05,4.5177577024154365
2021-10-06,4.542069851932905
2021-10-07,4.5213532807329795
2021-10-08,4.490877469278012
2021-10-11,4.536435324999658
2021-10-12,4.610911394733709
2021-10-13,4.785557862953221
2021-10-14,4.738813454805302
2021-10-15,4.7690441097103005
2021-10-18,4.835996966888954
2021-10-19,4.838816537769816
2021-10-20,4.853103023895535
2021-10-21,4.879645445308245
2021-10-22,4.896028847299981
2021-10-25,4.867723493022892
2021-10-26,4.881461588842374
2021-10-27,4.779703214561584
2021-10-28,4.8592005245066865
2021-10-29,4.98707318000978
2021-11-01,4.953628087208329
2021-11-02,4.948489942836352
2021-11-03,4.891141372287409
2021-11-04,4.950720695580188
2021-11-05,5.26837765807392
2021-11-08,5.421756405673767
2021-11-09,5.4996533579059115
2021-11-10,5.336987415611711
2021-11-11,5.38308035598844
2021-11-12,5.445707593805656
2021-11-15,5.417489016731821
2021-11-16,5.472254576185128
2021-11-17,5.3950581785815395
2021-11-18,5.41502177631911
2021-11-19,5.472758785740803
2021-11-22,5.2917092290856615
2021-11-23,5.107824833068316
2021-11-24,5.145733861541932
2021-11-26,5.108324236305676
2021-11-29,5.220784879492026
2021-11-30,5.1535753318201305
2021-12-01,4.960313754874093
2021-12-02,5.002060416651432
2021-12-03,4.860781737297131
2021-12-06,4.739948232364741
2021-12-07,4.739948232364741
2021-12-08,4.739948232364741
2021-12-09,4.739948232364741
2021-12-10,4.739948232364741
2021-12-13,4.618300435345619
2021-12-14,4.558620326597355
2021-12-15,4.73350060148862
2021-12-16,4.535142927027149
2021-12-17,4.600182960185881
2021-12-20,4.641535500982836
2021-12-21,4.717952893763135
2021-12-22,4.804391307597295
2021-12-23,4.82434333835927
2021-12-27,4.942945609066624
2021-12-28,4.84835789000978
2021-12-29,4.876512796229371
2021-12-30,4.819037104770933
2021-12-31,4.821602264930308
2022-01-03,4.8651461072766535
2022-01-04,4.865650557024756
2022-01-05,4.647997840884253
2022-01-06,4.664517995528019
2022-01-07,4.554896438368436
2022-01-10,4.498656946523949
2022-01-11,4.502358267652951
2022-01-12,4.513223799805997
2022-01-13,4.519313067044886
2022-01-14,4.540088729290391
2022-01-18,4.443877260117905
2022-01-19,4.409609408854717
2022-01-20,4.384421572880766
2022-01-21,4.384421572880766
2022-01-24,4.384421572880766
2022-01-25,4.384421572880766
2022-01-26,4.384421572880766
2022-01-27,4.384421572880766
2022-01-28,4.384421572880766
2022-01-31,4.384421572880766
2022-02-01,4.384421572880766
2022-02-02,4.384421572880766
2022-02-03,4.384421572880766
2022-02-04,4.384421572880766
2022-02-07,4.384421572880766
2022-02-08,4.384421572880766
2022-02-09,4.384421572880766
2022-02-10,4.384421572880766
2022-02-11,4.384421572880766
2022-02-14,4.384421572880766
2022-02-15,4.384421572880766
2022-02-16,4.384421572880766
2022-02-17,4.384421572880766
2022-02-18,4.384421572880766
2022-02-22,4.384421572880766
2022-02-23,4.384421572880766
2022-02-24,4.384421572880766
2022-02-25,4.384421572880766
2022-02-28,4.384421572880766
2022-03-01,4.384421572880766
2022-03-02,4.384421572880766
2022-03-03,4.384421572880766
2022-03-04,4.384421572880766
2022-03-07,4.384421572880766
2022-03-08,4.384421572880766
2022-03-09,4.384421572880766
2022-03-10,4.384421572880766
2022-03-11,4.384421572880766
2022-03-14,4.384421572880766
2022-03-15,4.384421572880766
2022-03-16,4.384421572880766
2022-03-17,4.384421572880766
2022-03-18,4.384421572880766
2022-03-21,4.384421572880766
2022-03-22,4.384421572880766
2022-03-23,4.384421572880766
2022-03-24,4.384421572880766
2022-03-25,4.384421572880766
2022-03-28,4.384421572880766
2022-03-29,4.384421572880766
2022-03-30,4.384421572880766
2022-03-31,4.384421572880766
2022-04-01,4.384421572880766
2022-04-04,4.384421572880766
2022-04-05,4.384421572880766
2022-04-06,4.384421572880766
2022-04-07,4.384421572880766
2022-04-08,4.384421572880766
2022-04-11,4.384421572880766
2022-04-12,4.384421572880766
2022-04-13,4.384421572880766
2022-04-14,4.384421572880766
2022-04-18,4.384421572880766
2022-04-19,4.384421572880766
2022-04-20,4.384421572880766
2022-04-21,4.384421572880766
2022-04-22,4.384421572880766
2022-04-25,4.384421572880766
2022-04-26,4.384421572880766
2022-04-27,4.384421572880766
2022-04-28,4.384421572880766
2022-04-29,4.384421572880766
2022-05-02,4.384421572880766
2022-05-03,4.384421572880766
2022-05-04,4.384421572880766
2022-05-05,4.384421572880766
2022-05-06,4.384421572880766
2022-05-09,4.384421572880766
2022-05-10,4.384421572880766
2022-05-11,4.384421572880766
2022-05-12,4.384421572880766
2022-05-13,4.384421572880766
2022-05-16,4.384421572880766
2022-05-17,4.384421572880766
2022-05-18,4.384421572880766
2022-05-19,4.384421572880766
2022-05-20,4.384421572880766
2022-05-23,4.384421572880766
2022-05-24,4.384421572880766
2022-05-25,4.384421572880766
2022-05-26,4.384421572880766
2022-05-27,4.384421572880766
2022-05-31,4.384421572880766
2022-06-01,4.384421572880766
2022-06-02,4.384421572880766
2022-06-03,4.384421572880766
2022-06-06,4.384421572880766
2022-06-07,4.384421572880766
2022-06-08,4.384421572880766
2022-06-09,4.384421572880766
2022-06-10,4.384421572880766
2022-06-13,4.384421572880766
2022-06-14,4.384421572880766
2022-06-15,4.384421572880766
2022-06-16,4.384421572880766
2022-06-17,4.384421572880766
2022-06-21,4.384421572880766
2022-06-22,4.384421572880766
2022-06-23,4.384421572880766
2022-06-24,4.384421572880766
2022-06-27,4.384421572880766
2022-06-28,4.384421572880766
2022-06-29,4.384421572880766
2022-06-30,4.384421572880766
2022-07-01,4.384421572880766
2022-07-05,4.384421572880766
2022-07-06,4.384421572880766
2022-07-07,4.384421572880766
2022-07-08,4.384421572880766
2022-07-11,4.384421572880766
2022-07-12,4.384421572880766
2022-07-13,4.384421572880766
2022-07-14,4.384421572880766
2022-07-15,4.384421572880766
2022-07-18,4.384421572880766
2022-07-19,4.384421572880766
2022-07-20,4.384421572880766
2022-07-21,4.384421572880766
2022-07-22,4.384421572880766
2022-07-25,4.384421572880766
2022-07-26,4.384421572880766
2022-07-27,4.384421572880766
2022-07-28,4.384421572880766
2022-07-29,4.384421572880766
2022-08-01,4.384421572880766
2022-08-02,4.384421572880766
2022-08-03,4.384421572880766
2022-08-04,4.384421572880766
2022-08-05,4.384421572880766
2022-08-08,4.384421572880766
2022-08-09,4.384421572880766
2022-08-10,4.384421572880766
2022-08-11,4.384421572880766
2022-08-12,4.384421572880766
2022-08-15,4.384421572880766
2022-08-16,4.384421572880766
2022-08-17,4.384421572880766
2022-08-18,4.384421572880766
2022-08-19,4.384421572880766
2022-08-22,4.384421572880766
2022-08-23,4.384421572880766
2022-08-24,4.384421572880766
2022-08-25,4.384421572880766
2022-08-26,4.384421572880766
2022-08-29,4.384421572880766
2022-08-30,4.384421572880766
2022-08-31,4.384421572880766
2022-09-01,4.384421572880766
2022-09-02,4.384421572880766
2022-09-06,4.384421572880766
2022-09-07,4.384421572880766
2022-09-08,4.384421572880766
2022-09-09,4.384421572880766
2022-09-12,4.384421572880766
2022-09-13,4.384421572880766
2022-09-14,4.384421572880766
2022-09-15,4.384421572880766
2022-09-16,4.384421572880766
2022-09-19,4.384421572880766
2022-09-20,4.384421572880766
2022-09-21,4.384421572880766
2022-09-22,4.384421572880766
2022-09-23,4.384421572880766
2022-09-26,4.384421572880766
2022-09-27,4.384421572880766
2022-09-28,4.384421572880766
2022-09-29,4.384421572880766
2022-09-30,4.384421572880766
2022-10-03,4.384421572880766
2022-10-04,4.384421572880766
2022-10-05,4.384421572880766
2022-10-06,4.384421572880766
2022-10-07,4.384421572880766
2022-10-10,4.384421572880766
2022-10-11,4.384421572880766
2022-10-12,4.384421572880766
2022-10-13,4.384421572880766
2022-10-14,4.384421572880766
2022-10-17,4.384421572880766
2022-10-18,4.384421572880766
2022-10-19,4.384421572880766
2022-10-20,4.384421572880766
2022-10-21,4.384421572880766
2022-10-24,4.384421572880766
2022-10-25,4.384421572880766
2022-10-26,4.384421572880766
2022-10-27,4.384421572880766
2022-10-28,4.384421572880766
2022-10-31,4.384421572880766
2022-11-01,4.384421572880766
2022-11-02,4.384421572880766
2022-11-03,4.384421572880766
2022-11-04,4.384421572880766
2022-11-07,4.384421572880766
2022-11-08,4.384421572880766
2022-11-09,4.384421572880766
2022-11-10,4.384421572880766
2022-11-11,4.384421572880766
2022-11-14,4.384421572880766
2022-11-15,4.384421572880766
2022-11-16,4.384421572880766
2022-11-17,4.384421572880766
2022-11-18,4.384421572880766
2022-11-21,4.384421572880766
2022-11-22,4.384421572880766
2022-11-23,4.384421572880766
2022-11-25,4.384421572880766
2022-11-28,4.384421572880766
2022-11-29,4.384421572880766
2022-11-30,4.384421572880766
2022-12-01,4.384421572880766
2022-12-02,4.384421572880766
2022-12-05,4.384421572880766
2022-12-06,4.384421572880766
2022-12-07,4.384421572880766
2022-12-08,4.384421572880766
2022-12-09,4.384421572880766
2022-12-12,4.384421572880766
2022-12-13,4.384421572880766
2022-12-14,4.384421572880766
2022-12-15,4.384421572880766
2022-12-16,4.384421572880766
2022-12-19,4.384421572880766
2022-12-20,4.384421572880766
2022-12-21,4.384421572880766
2022-12-22,4.384421572880766
2022-12-23,4.384421572880766
2022-12-27,4.384421572880766
2022-12-28,4.384421572880766
2022-12-29,4.384421572880766
2022-12-30,4.384421572880766
2023-01-03,4.384421572880766
2023-01-04,4.384421572880766
2023-01-05,4.384421572880766
2023-01-06,4.384421572880766
2023-01-09,4.384421572880766
2023-01-10,4.384421572880766
2023-01-11,4.384421572880766
2023-01-12,4.384421572880766
2023-01-13,4.384421572880766
2023-01-17,4.384421572880766
2023-01-18,4.384421572880766
2023-01-19,4.384421572880766
2023-01-20,4.384421572880766
2023-01-23,4.384421572880766
2023-01-24,4.384421572880766
2023-01-25,4.384421572880766
2023-01-26,4.384421572880766
2023-01-27,4.384421572880766
2023-01-30,4.384421572880766
2023-01-31,4.384421572880766
2023-02-01,4.384421572880766
2023-02-02,4.384421572880766
2023-02-03,4.384421572880766
2023-02-06,4.408716053476574
2023-02-07,4.588275246576617
2023-02-08,4.4953934075803295
2023-02-09,4.444544616681014
2023-02-10,4.287286623606482
2023-02-13,4.404445596714534
2023-02-14,4.529680033969921
2023-02-15,4.480603557449001
2023-02-16,4.344843986610988
2023-02-17,4.285321061729208
2023-02-21,4.198687005511408
2023-02-22,4.197835213334624
2023-02-23,4.502771000352717
2023-02-24,4.46294325801223
2023-02-27,4.470269002436714
2023-02-28,4.475611239498633
2023-03-01,4.411076559664837
2023-03-02,4.483251502943655
2023-03-03,4.614159399441792
2023-03-06,4.576464811599704
2023-03-07,4.546300370795292
2023-03-08,4.64341923195089
2023-03-09,4.543425295595613
2023-03-10,4.479510631976192
2023-03-13,4.488720974043803
2023-03-14,4.690263643787615
2023-03-15,4.732084325782113
2023-03-16,4.917481560562544
2023-03-17,4.875824237589514
2023-03-20,4.908675994732922
2023-03-21,4.968679450734095
2023-03-22,4.98163387207752
2023-03-23,5.087105126546607
2023-03-24,5.055018970868126
2023-03-27,5.008120327523395
2023-03-28,4.981220411466628
2023-03-29,5.07229909585778
2023-03-30,5.130656874848425
2023-03-31,5.199033470797113
2023-04-03,5.226246980056528
2023-04-04,5.1830987729995375
2023-04-05,5.101597853406048
2023-04-06,5.148299177214085
2023-04-10,5.196574100119911
2023-04-11,5.147471780340156
2023-04-12,5.077426590026377
2023-04-13,5.115648263978628
2023-04-14,5.154203212823855
2023-04-17,5.162689863765953
2023-04-18,5.2264152290646795
2023-04-19,5.239891289314082
2023-04-20,5.1355127875636
2023-04-21,5.135914472537301
2023-04-24,5.12714496730791
2023-04-25,5.008411075336657
2023-04-26,5.0958770625289365
2023-04-27,5.315334321690138
2023-04-28,5.381977981766028
2023-05-01,5.523060354873834
2023-05-02,5.423484853998939
2023-05-03,5.3660130604873615
2023-05-04,5.31772955250789
2023-05-05,5.430699764233788
2023-05-08,5.483544812767516
2023-05-09,5.423077675112106
2023-05-10,5.45426883063651
2023-05-11,5.439667093419516
2023-05-12,5.401616918190282
2023-05-15,5.4992947870362965
2023-05-16,5.526432208961273
2023-05-17,5.6521655615479816
2023-05-18,5.838797700774959
2023-05-19,5.787243241730028
2023-05-22,5.795524393078402
2023-05-23,5.733748017381222
2023-05-24,5.73412099080312
2023-05-25,6.541169765538228
2023-05-26,6.7042140476893
2023-05-30,6.830128199918418
2023-05-31,6.604583768732038
2023-06-01,6.860284576205377
2023-06-02,6.813599860303311
2023-06-05,6.789168819874904
2023-06-06,6.732917955591777
2023-06-07,6.559822342268875
2023-06-08,6.675323721282508
2023-06-09,6.7051502980728
2023-06-12,6.820146561206451
2023-06-13,6.984221342789976
2023-06-14,7.205668968265593
2023-06-15,7.2249601692444845
2023-06-16,7.2236331036975905
2023-06-20,7.363064257378786
2023-06-21,7.265028561029162
2023-06-22,7.284144379188836
2023-06-23,7.223361541031938
2023-06-26,6.989951568730918
2023-06-27,7.177260879202192
2023-06-28,7.085739566635949
2023-06-29,7.030019271720077
2023-06-30,7.221699990194558
2023-07-03,7.227109990125866
2023-07-05,7.2716883396011465
2023-07-06,7.233543401988669
2023-07-07,7.2661372343736055
2023-07-10,7.255480076470963
2023-07-11,7.3066392329960905
2023-07-12,7.536792444954818
2023-07-13,7.78214341828286
2023-07-14,7.698864636015008
2023-07-17,7.814877144706472
2023-07-18,7.933115127654805
2023-07-19,7.91510550736267
2023-07-20,7.662646199319763
2023-07-21,7.480910307228363
2023-07-24,7.4908998756299
2023-07-25,7.603354724868606
2023-07-26,7.579430558223168
2023-07-27,7.626646788153802
2023-07-28,7.716230842228365
2023-07-31,7.673406865748112
2023-08-01,7.710676380373428
2023-08-02,7.325427929756383
2023-08-03,7.364669168977491
2023-08-04,7.52253348189842
2023-08-07,7.72670218438813
2023-08-08,7.5983248187485195
2023-08-09,7.012821338345214
2023-08-10,7.012821338345214
2023-08-11,7.012821338345214
2023-08-14,7.093265989897313
2023-08-15,7.0692852839718565
2023-08-16,7.039950003139258
2023-08-17,6.938159958614234
2023-08-18,6.927496690551099
2023-08-21,6.9595857160802375
2023-08-22,6.993037188290827
2023-08-23,7.038513033778436
2023-08-24,6.959251420277079
2023-08-25,6.979670894376551
2023-08-28,7.0147401450648195
2023-08-29,7.0827059744268395
2023-08-30,7.139171978249309
2023-08-31,7.129226656518531
2023-09-01,7.1328784249027155
2023-09-05,7.066554560148036
2023-09-06,6.985890255446836
2023-09-07,6.99730435222366
2023-09-08,6.9808680249985855
2023-09-11,6.981517447116172
2023-09-12,6.928593511833335
2023-09-13,6.862229438176821
2023-09-14,6.979847972973069
2023-09-15,6.929412325714859
2023-09-18,6.964239096018971
2023-09-19,6.735074531119937
2023-09-20,6.6988624214635255
2023-09-21,6.6988624214635255
2023-09-22,6.6988624214635255
2023-09-25,6.674124346239079
2023-09-26,6.693563372557108
2023-09-27,6.7196686651710955
2023-09-28,6.754046981446091
2023-09-29,6.763185360896744
2023-10-02,6.770192135815977
2023-10-03,6.659331380240538
2023-10-04,6.707956944472237
2023-10-05,6.718530169323113
2023-10-06,6.851414498095941
2023-10-09,6.929956306059683
2023-10-10,6.949139908437977
2023-10-11,7.071650318310642
2023-10-12,7.073837386436662
2023-10-13,7.0489198080337445
2023-10-16,7.086493265000215
2023-10-17,7.065612111027998
2023-10-18,7.067077172448419
2023-10-19,7.014598062552934
2023-10-20,6.94381105541777
2023-10-23,6.911128204086876
2023-10-24,6.968969776988109
2023-10-25,6.867220903963236
2023-10-26,6.799659759492881
2023-10-27,6.792852750704819
2023-10-30,6.809260622127696
2023-10-31,6.813362816736792
2023-11-01,6.828718628747368
2023-11-02,6.835555289303487
2023-11-03,6.8265099644414775
2023-11-06,6.789098473517542
2023-11-07,6.89795554937479
2023-11-08,6.910300376104815
2023-11-09,6.850868364827884
2023-11-10,6.974960156206107
2023-11-13,7.074596979911135
2023-11-14,7.200861009420104
2023-11-15,7.156814088584995
2023-11-16,7.083800959182417
2023-11-17,7.13472158184223
2023-11-20,7.259728702219672
2023-11-21,7.02909132207951
2023-11-22,7.0223812185029075
2023-11-24,6.960774832819448
2023-11-27,6.930390593758187
2023-11-28,7.075145706511752
2023-11-29,7.495399891914188
2023-11-30,7.575973600544213
2023-12-01,7.5767545835821295
2023-12-04,7.37890318622508
2023-12-05,7.407433293819086
2023-12-06,7.415558892851938
2023-12-07,7.4291016497493905
2023-12-08,7.472077419806298
2023-12-11,7.598628946458149
2023-12-12,7.640226136219871
2023-12-13,7.665551725422526
2023-12-14,7.703744664503519
2023-12-15,7.805201591961248
2023-12-18,7.793612110344588
2023-12-19,7.786668716317397
2023-12-20,7.635208335027101
2023-12-21,7.735261506446887
2023-12-22,7.7173095156719675
2023-12-26,7.771326613700465
2023-12-27,7.826730314750858
2023-12-28,7.798206397040177
2023-12-29,7.704675854223289
2024-01-02,7.4043081481699495
2024-01-03,7.31124212824782
2024-01-04,7.31124212824782
2024-01-05,7.31124212824782
2024-01-08,7.598945966107294
2024-01-09,7.860420539328796
2024-01-10,7.961684501330245
2024-01-11,7.984131544388497
2024-01-12,7.929127226634785
2024-01-16,8.289016627158865
2024-01-17,8.180847777711456
2024-01-18,8.345222635190549
2024-01-19,8.754124152114155
2024-01-22,8.714393127653516
2024-01-23,8.70047181702325
2024-01-24,9.001213801120974
2024-01-25,8.955371766688346
2024-01-26,8.829441013152938
2024-01-29,8.994893471860495
2024-01-30,8.854484162033732
2024-01-31,8.61223636896217
2024-02-01,8.784599335674768
2024-02-02,9.032551204433137
2024-02-05,8.927544580213933
2024-02-06,8.7566468599682
2024-02-07,9.063749536767475
2024-02-08,9.098672978293653
2024-02-09,9.271618960328478
2024-02-12,9.139950772889307
2024-02-13,9.14700293020485
2024-02-14,9.509224844155575
2024-02-15,9.412694842379308
2024-02-16,9.30636964048766
2024-02-20,9.013072541639044
2024-02-21,8.627972688181233
2024-02-22,9.085576625142803
2024-02-23,8.94649851877168
2024-02-26,8.900038227392951
2024-02-27,8.930529983110004
2024-02-28,8.835862907524202
2024-02-29,9.331386266779226
2024-03-01,9.76751488851473
2024-03-04,9.999770040983893
2024-03-05,10.033671041903553
2024-03-06,10.326222730070885
2024-03-07,10.56234830863658
2024-03-08,10.177881165641255
2024-03-11,9.84776202264509
2024-03-12,10.296588497885079
2024-03-13,10.01894786877089
2024-03-14,9.85829100262196
2024-03-15,9.852451820515508
2024-03-18,10.230988066628388
2024-03-19,10.242481616020976
2024-03-20,10.521327120748158
2024-03-21,10.688264960737712
2024-03-22,10.790721054017476
2024-03-25,10.936992179506039
2024-03-26,10.6854517029015
2024-03-27,10.384582135093593
2024-03-28,10.41857896493833
2024-04-01,10.412691128518539
2024-04-02,10.408429055136299
2024-04-03,10.627868418365114
2024-04-04,10.45466554018054
2024-04-05,10.727336191023163
2024-04-08,10.934667538620987
2024-04-09,10.781056550949454
2024-04-10,10.766950649471912
2024-04-11,10.915846143315955
2024-04-12,10.706609102969946
2024-04-15,10.333684448837722
2024-04-16,10.412012100663395
2024-04-17,10.184014134585226
2024-04-18,9.929743124192374
2024-04-19,9.829469460228166
2024-04-22,9.891399131910426
2024-04-23,9.953960727351191
2024-04-24,9.986401787029267
2024-04-25,9.886939839083103
2024-04-26,10.38886840259853
2024-04-29,10.205302980843268
2024-04-30,10.100287625654563
2024-05-01,10.132135030977528
2024-05-02,10.221608978057517
2024-05-03,10.239830492457738
2024-05-06,10.266758012254815
2024-05-07,10.366536998967105
2024-05-08,10.308090519089253
2024-05-09,10.323942443443055
2024-05-10,10.282761238075235
2024-05-13,10.300172790427403
2024-05-14,10.33550677897448
2024-05-15,10.400779143932958
2024-05-16,10.451787881494552
2024-05-17,10.511024379323672
2024-05-20,10.543148431799333
2024-05-21,10.574970168639783
2024-05-22,10.527303973047525
2024-05-23,10.435927482647454
2024-05-24,10.478863214959876
2024-05-28,10.527936759756294
2024-05-29,10.510208692889888
2024-05-30,10.389368586092298
2024-05-31,10.401879954695653
2024-06-03,10.41979493065441
2024-06-04,10.440851833299302
2024-06-05,10.497207849190499
2024-06-06,10.538390308452247
2024-06-07,10.46443758038156
2024-06-10,10.490271850860328
2024-06-11,10.54054083039171
2024-06-12,10.5807978791974
2024-06-13,10.494397848647415
2024-06-14,10.546089097855255
2024-06-17,10.559728841876415
2024-06-18,10.488708316865875
2024-06-20,10.527869310015777
2024-06-21,10.621171410706378
2024-06-24,10.622992594940841
2024-06-25,10.775214079192216
2024-06-26,10.769510825122296
2024-06-27,10.817400064708046
2024-06-28,10.71117903594028
2024-07-01,10.741444820341687
2024-07-02,10.810747546344677
2024-07-03,10.832294341472657
2024-07-05,10.980568776687551
2024-07-08,10.932199300387737
2024-07-09,10.930771064005839
2024-07-10,11.000854055426576
2024-07-11,10.82688961452694
2024-07-12,10.81071835518581
2024-07-15,10.856229843727743
2024-07-16,10.772198346671631
2024-07-17,10.674984530134802
2024-07-18,10.674984530134802
2024-07-19,10.674984530134802
2024-07-22,10.711402511185316
2024-07-23,10.687628555575472
2024-07-24,10.139796237936247
2024-07-25,10.077067369436996
2024-07-26,10.077067369436996
2024-07-29,10.021351431758204
2024-07-30,9.962256578157541
2024-07-31,10.003681724628137
2024-08-01,9.95271437435761
2024-08-02,9.77407655718783
2024-08-05,9.642850988419687
2024-08-06,9.650656917721196
2024-08-07,9.551248077950577
2024-08-08,9.601734535806278
2024-08-09,9.540452401552374
2024-08-12,9.45295150217197
2024-08-13,9.564016331849814
2024-08-14,9.617189319618964
2024-08-15,9.64088468256678
2024-08-16,9.690907025241762
2024-08-19,9.745294068571223
2024-08-20,9.740628424196867
2024-08-21,9.770039385580954
2024-08-22,9.74560727564941
2024-08-23,9.76060671994572
2024-08-26,9.694905230054822
2024-08-27,9.695386987263943
2024-08-28,9.707076751181834
2024-08-29,9.785794527556316
2024-08-30,9.809349771766183
2024-09-03,9.755100698046968
2024-09-04,9.652484226849495
2024-09-05,9.641053330731223
2024-09-06,9.639465791238212
2024-09-09,9.685154933227965
2024-09-10,9.799016463040369
2024-09-11,9.827390906160305
2024-09-12,9.885031356097805
2024-09-13,9.855177400435474
2024-09-16,9.86605422422517
2024-09-17,9.834872441508608
2024-09-18,9.804863000871975
2024-09-19,9.837095015958973
2024-09-20,9.792339606039807
2024-09-23,9.802706717802616
2024-09-24,9.80004148262341
2024-09-25,9.735277378707853
2024-09-26,9.689375537027312
2024-09-27,9.707643202050859
2024-09-30,9.830559797785938
2024-10-01,9.837565446697685
2024-10-02,9.890191137315224
2024-10-03,10.019775332396835
2024-10-04,10.200853432086358
2024-10-07,10.206747460604713
2024-10-08,10.367055640239023
2024-10-09,10.392680569380689
2024-10-10,10.400300193737216
2024-10-11,10.491372341904183
2024-10-14,10.429963602638795
2024-10-15,10.398008868812237
2024-10-16,10.467343287850587
2024-10-17,10.416577104299886
2024-10-18,10.480444456395478
2024-10-21,10.984718183708225
2024-10-22,11.04845058500496
2024-10-23,11.03574837022636
2024-10-24,11.070221364465407
2024-10-25,11.177234765948011
2024-10-28,11.342670746381993
2024-10-29,11.551018375066153
2024-10-30,11.535323456652234
2024-10-31,11.466410452619906
2024-11-01,11.265795407617638
2024-11-04,11.10837458542793
2024-11-05,11.35126426630263
2024-11-06,11.526464988702735
2024-11-07,14.689384188611454
2024-11-08,16.299364293913754
2024-11-11,16.178035946630985
2024-11-12,16.190966454479383
2024-11-13,15.9206246603811
2024-11-14,15.940769062171185
2024-11-15,16.19162468667397
2024-11-18,16.165174591513015
2024-11-19,17.182445085844186
2024-11-20,17.26769097626848
2024-11-21,16.942362857321267
2024-11-22,17.751317162310222
2024-11-25,17.25353796509781
2024-11-26,17.726557421566397
2024-11-27,17.705053616842775
2024-11-29,18.097697784153443
2024-12-02,18.189149438402424
2024-12-03,19.536812338330726
2024-12-04,19.720898924117076
2024-12-05,20.084555578747427
2024-12-06,21.290149830565714
2024-12-09,18.73969631701764
2024-12-10,18.61568854388553
2024-12-11,18.743645850968974
2024-12-12,18.79814568328892
2024-12-13,19.024835313013035
2024-12-16,19.470512522906766
2024-12-17,19.72473528837424
2024-12-18,18.644043910744593
2024-12-19,18.772263574439613
2024-12-20,18.91332317993622
2024-12-23,19.01760160144255
2024-12-24,19.335008776686905
2024-12-26,19.29589526445278
2024-12-27,18.878675867030296
2024-12-30,18.563998408615454
2024-12-31,18.33995134994565
2025-01-02,18.566382141069244
2025-01-03,19.325613547225927
2025-01-06,19.08174601960515
2025-01-07,18.37988837807307
2025-01-08,18.51179980104902
2025-01-10,18.188302653876566
2025-01-13,18.36641828092288
2025-01-14,18.358552922909567
2025-01-15,18.493251485825628
2025-01-16,18.65484364593093
2025-01-17,19.422339781225347
2025-01-21,19.39868023485046
2025-01-22,19.531105412054814
2025-01-23,19.589644716190378
2025-01-24,19.50861347897284
2025-01-27,17.986713863922276
2025-01-28,17.986713863922276
2025-01-29,17.986713863922276
2025-01-30,17.986713863922276
2025-01-31,17.986713863922276
2025-02-03,18.341340965215206
2025-02-04,19.65731969959581
2025-02-05,19.3661871544319
2025-02-06,20.080125799862408
2025-02-07,19.99353816301919
2025-02-10,20.429449199874202
2025-02-11,20.08689374785612
2025-02-12,20.419080677514195
2025-02-13,21.610243854107367
2025-02-14,22.169609323581383
2025-02-18,22.29629389013287
2025-02-19,21.568138859956367
2025-02-20,20.24216884924518
2025-02-21,20.24216884924518
2025-02-24,20.183473684699234
2025-02-25,20.085056902430093
2025-02-26,20.10008765454301
2025-02-27,20.020190121589827
2025-02-28,20.045366276132228
2025-03-03,20.095714000516395
2025-03-04,19.893114046001145
2025-03-05,19.864293654640242
2025-03-06,19.892004435001404
2025-03-07,19.955278676669757
2025-03-10,19.936342842649616
2025-03-11,19.936342842649616
2025-03-12,19.936342842649616
2025-03-13,19.936342842649616
2025-03-14,19.936342842649616
2025-03-17,19.936342842649616
2025-03-18,19.936342842649616
2025-03-19,19.936342842649616
2025-03-20,19.936342842649616
2025-03-21,19.936342842649616
2025-03-24,19.936342842649616
2025-03-25,19.936342842649616
2025-03-26,19.936342842649616
2025-03-27,19.936342842649616
2025-03-28,19.936342842649616
2025-03-31,19.936342842649616
2025-04-01,19.936342842649616
2025-04-02,19.936342842649616
2025-04-03,19.936342842649616
2025-04-04,19.936342842649616
2025-04-07,19.936342842649616
2025-04-08,19.936342842649616
2025-04-09,19.936342842649616
2025-04-10,19.936342842649616
2025-04-11,19.936342842649616
2025-04-14,19.936342842649616
2025-04-15,19.936342842649616
2025-04-16,19.936342842649616
2025-04-17,19.936342842649616
2025-04-21,19.936342842649616
2025-04-22,19.936342842649616
2025-04-23,19.936342842649616
2025-04-24,19.936342842649616
2025-04-25,19.936342842649616
2025-04-28,19.936342842649616
2025-04-29,19.936342842649616
2025-04-30,19.936342842649616
2025-05-01,19.936342842649616
2025-05-02,19.936342842649616
2025-05-05,19.936342842649616
2025-05-06,19.936342842649616
2025-05-07,19.936342842649616
2025-05-08,19.936342842649616
2025-05-09,19.936342842649616
2025-05-12,19.936342842649616
2025-05-13,19.936342842649616
2025-05-14,19.936342842649616
2025-05-15,19.936342842649616
2025-05-16,19.936342842649616
2025-05-19,20.080255881606725
2025-05-20,20.02443827916018
2025-05-21,19.712124884827976
2025-05-22,19.864443472943943
2025-05-23,19.56583078378687
2025-05-27,19.755518208599362
2025-05-28,19.76782331571288
2025-05-29,19.632516387929336
2025-05-30,20.45755072293352
2025-06-02,20.595067549873647
2025-06-03,20.719536174709475
2025-06-04,20.357390917787306
2025-06-05,19.580245957117686
2025-06-06,19.64190940924631
2025-06-09,19.57383620783246
2025-06-10,19.634016530618137
2025-06-11,19.91592581296797
2025-06-12,19.753008092330756
2025-06-13,19.551364888535634
2025-06-16,20.017404923252627
2025-06-17,19.520325648144468
2025-06-18,19.488197162264626
2025-06-20,19.275589430525457
2025-06-23,19.704572971507798
2025-06-24,19.91423976189536
2025-06-25,19.98447642324258
2025-06-26,20.143704376952872
2025-06-27,19.104229504885158
2025-06-30,19.51234912813512
2025-07-01,18.87985922733806
2025-07-02,19.050122475508452
2025-07-03,19.378470870634825
2025-07-07,19.777590241089996
2025-07-08,19.742133623352597
2025-07-09,20.126919431865943
2025-07-10,19.51884751183856
2025-07-11,19.365123688405994
2025-07-14,19.922679710250687
2025-07-15,20.07534436263291
2025-07-16,20.48283032558789
2025-07-17,20.98899940287542
2025-07-18,20.836269295670135
2025-07-21,20.63133779073102
2025-07-22,20.224438317555077
2025-07-23,20.801100237731312
2025-07-24,20.85193849159888
2025-07-25,21.246770300116385
2025-07-28,21.263623973650304
2025-07-29,21.21176132290394
2025-07-30,21.42282673210639
2025-07-31,21.512673773830578
2025-08-01,20.860270083977547
2025-08-04,21.654032157507267
2025-08-05,22.771499479175866
2025-08-06,23.299167186900608
2025-08-07,23.266091110322115
2025-08-08,23.669581188215282
2025-08-11,23.41927173132523
2025-08-12,23.803341819583164
2025-08-13,23.257714514056385
2025-08-14,23.01717849293164
2025-08-15,22.82531846520036
2025-08-18,22.60191595556754
2025-08-19,21.6745785919649
2025-08-20,21.6745785919649
2025-08-21,21.6745785919649
2025-08-22,21.6745785919649
2025-08-25,21.9131266560262
2025-08-26,22.396806337945996
2025-08-27,22.165609588892416
2025-08-28,22.804858964670675
2025-08-29,22.657834892294353
2025-09-02,22.562648306167045
2025-09-03,22.7918323647688
2025-09-04,23.482046926212604
2025-09-05,23.371143629810206
2025-09-08,24.72298717871638
2025-09-09,24.782883876482654
2025-09-10,24.907697937422412
2025-09-11,25.228729112452204
2025-09-12,25.36480252179281
2025-09-15,25.98625121551035
2025-09-16,26.19627242008056
2025-09-17,26.317483392513218
2025-09-18,27.009706526005182
2025-09-19,27.792231747659145
2025-09-22,27.93646223360758
2025-09-23,27.572657197945876
2025-09-24,27.259270258442974
2025-09-25,26.800693479156173
2025-09-26,27.537865761019646
2025-09-29,28.571131350851676
2025-09-30,28.425536430308963
2025-10-01,28.834944844824278
2025-10-02,28.766954674673784
2025-10-03,28.59484221154536
2025-10-06,27.702071757704545
2025-10-07,27.88773697391272
2025-10-08,27.970967177252017
2025-10-09,28.089408843857385
2025-10-10,27.631646388899945
2025-10-13,27.66638601476577
2025-10-14,27.262269703892734
2025-10-15,29.036728280564773
2025-10-16,28.683808228243024
2025-10-17,28.64529351304381
2025-10-20,29.46390898435341
2025-10-21,29.31144508818676
2025-10-22,28.43752269990584
2025-10-23,29.13335950404455
2025-10-24,30.29765152590518
2025-10-27,31.124849240967215
2025-10-28,31.657637819241643
2025-10-29,31.993667240541008
2025-10-30,31.020027837514228
2025-10-31,31.045984136430675
2025-11-03,31.11078731921478
2025-11-04,29.71729388828838
2025-11-05,30.543787148949228
2025-11-06,29.009024237208685
2025-11-07,28.88796807902246
2025-11-10,29.304223401435657
2025-11-11,28.405381797984102
2025-11-12,28.631310146156515
2025-11-13,27.637521623797504
2025-11-14,28.218145742522726
2025-11-17,27.725223593658825
2025-11-18,26.89970171067773
2025-11-19,26.281163345865604
2025-11-20,26.117786466540604
2025-11-21,26.117786466540604
2025-11-24,26.294778836150407
2025-11-25,26.619309144566657
2025-11-26,26.522755725385053
2025-11-28,26.48956109119826
2025-12-01,26.11979194204999
2025-12-02,26.069335292343172
2025-12-03,25.991825994085193
2025-12-04,25.942159874020582
2025-12-05,25.980565147303288
2025-12-08,25.747757551058182
2025-12-09,25.818316758121735
2025-12-10,25.884046832564646
2025-12-11,25.72066695077116
2025-12-12,25.65472780631041
2025-12-15,25.579580668240652
2025-12-16,25.485669807612844
2025-12-17,25.12233210103885
2025-12-18,25.249877413864738
2025-12-19,25.320844301640054
2025-12-22,25.358512163848815
2025-12-23,25.373556460753917
2025-12-24,25.86544523523223
2025-12-26,25.805888895976906
2025-12-29,26.279728357681847
2025-12-30,26.124606919669553
2025-12-31,25.719945235298397
2026-01-02,27.389579764778368
2026-01-05,27.616001825091494
2026-01-06,29.33939851815633
2026-01-07,29.068074000124255
2026-01-08,28.23439216930904
2026-01-09,29.541811429818914
2026-01-12,29.72546386533341
2026-01-13,29.31176634038149
2026-01-14,29.019300467235297
2026-01-15,29.58933711741267
2026-01-16,30.983773795913187
2026-01-20,30.8731122476458
2026-01-21,32.15268639415221
2026-01-22,32.384853854976555
2026-01-23,32.56758777917803
2026-01-26,32.01080852783002
2026-01-27,33.30645423318888
2026-01-28,34.556363969691596
2026-01-29,34.69175290718871
2026-01-30,33.266426721737005
2026-02-02,34.46860335704584
2026-02-03,33.38709120420649
2026-02-04,30.883586419591868
2026-02-05,30.883586419591868
2026-02-06,30.883586419591868
2026-02-09,30.94967987280663
2026-02-10,30.651779149328085
2026-02-11,31.690921687562103
2026-02-12,31.6354171887904
2026-02-13,31.731515806430696
2026-02-17,31.49225908248797
2026-02-18,32.07366650005696
2026-02-19,31.909625086364894
2026-02-20,32.38293697100097
2026-02-23,32.1475693538864
2026-02-24,32.154290544901144
2026-02-25,32.553507082809205
2026-02-26,31.9299616285847
2026-02-27,31.69062410392549
2026-03-02,31.599275017962235
2026-03-03,30.55234129968867
2026-03-04,30.980073815988323
2026-03-05,30.90462777561036
2026-03-06,30.36210235500056
2026-03-09,30.897282152769176
2026-03-10,30.868141083978465
2026-03-11,31.08139862792732
2026-03-12,30.22947591178318
2026-03-13,30.070326530041182
2026-03-16,29.791326609793785
2026-03-17,30.087972831216092
2026-03-18,29.49994799363577
2026-03-19,29.20563396097467
2026-03-20,28.84541178245538
2026-03-23,28.90019509790887
2026-03-24,28.90019509790887
2026-03-25,28.90019509790887
2026-03-26,28.90019509790887
2026-03-27,28.90019509790887
2026-03-30,28.90019509790887
2026-03-31,28.90019509790887
2026-04-01,28.90019509790887
2026-04-02,28.90019509790887
2026-04-06,28.90019509790887
2026-04-07,28.90019509790887
2026-04-08,28.90019509790887
2026-04-09,28.90019509790887
2026-04-10,28.90019509790887
2026-04-13,29.745239248173608
2026-04-14,29.70814917643962
2026-04-15,30.05636098018162
2026-04-16,30.746920877762868
2026-04-17,31.44958088766768
2026-04-20,31.705002627308883
2026-04-21,32.2209386307697
2026-04-22,32.65906426768275
2026-04-23,33.92609997820323
2026-04-24,37.449613680350225
2026-04-27,37.34077338788629
2026-04-28,36.67787026574461
2026-04-29,39.42657843761893
2026-04-30,40.31775861203454
2026-05-01,41.49001457368045
2026-05-04,40.4542088825245
2026-05-05,43.89479826168018
2026-05-06,45.402232804987534
2026-05-07,43.264697891405085
2026-05-08,47.94543061179715
2026-05-11,49.07477777833681
2026-05-12,46.31787886522555
2026-05-13,47.73888774337886
2026-05-14,47.240426193487224
2026-05-15,44.96364103387045
2026-05-18,43.62782101132437
2026-05-19,44.076233261223976
2026-05-20,47.0232392642954
