Date,Value
2018-01-02,1.0
2018-01-03,1.0
2018-01-04,1.0
2018-01-05,1.0
2018-01-08,1.0243276923826679
2018-01-09,1.022997488831695
2018-01-10,1.0227144537262602
2018-01-11,1.0309464361703433
2018-01-12,1.041074869854905
2018-01-16,1.0380035726052617
2018-01-17,1.0424808989154664
2018-01-18,1.044659968611098
2018-01-19,1.0498867038403183
2018-01-22,1.0662191923725373
2018-01-23,1.0770554959641485
2018-01-24,1.0711330284220657
2018-01-25,1.077206779731685
2018-01-26,1.1205683555187536
2018-01-29,1.125168473531899
2018-01-30,1.1156664581411035
2018-01-31,1.1244322172349375
2018-02-01,1.1107066075917529
2018-02-02,1.084896237034037
2018-02-05,1.0755836384722173
2018-02-06,1.0755836384722173
2018-02-07,1.0755836384722173
2018-02-08,1.0755836384722173
2018-02-09,1.0755836384722173
2018-02-12,1.0918987635452162
2018-02-13,1.0881400767848133
2018-02-14,1.1214632764837267
2018-02-15,1.1375321198323074
2018-02-16,1.1347498686551756
2018-02-20,1.146231196033193
2018-02-21,1.1273401099365705
2018-02-22,1.1270388449978372
2018-02-23,1.141496462559564
2018-02-26,1.1486813823423982
2018-02-27,1.1479268203882054
2018-02-28,1.1499474482176164
2018-03-01,1.1459257309887976
2018-03-02,1.1570760508784916
2018-03-05,1.1774923926703802
2018-03-06,1.1932329910014199
2018-03-07,1.193635597308069
2018-03-08,1.1973336277405957
2018-03-09,1.2165496876072748
2018-03-12,1.2035331851002418
2018-03-13,1.1915812430188555
2018-03-14,1.199656213122049
2018-03-15,1.2016954319228315
2018-03-16,1.1984656134717757
2018-03-19,1.1896760169796783
2018-03-20,1.210297551553891
2018-03-21,1.2011189025982887
2018-03-22,1.182074714268979
2018-03-23,1.1712900238025323
2018-03-26,1.1753284014562468
2018-03-27,1.162643130518465
2018-03-28,1.1595730496487033
2018-03-29,1.1595730496487033
2018-04-02,1.138375146845027
2018-04-03,1.1451891518880695
2018-04-04,1.1530341350683821
2018-04-05,1.1645680013461288
2018-04-06,1.1604441625371034
2018-04-09,1.1497054792130588
2018-04-10,1.1550151027836901
2018-04-11,1.1540998920692067
2018-04-12,1.1641214170317573
2018-04-13,1.1552962224420371
2018-04-16,1.1611881880833024
2018-04-17,1.1719578454867527
2018-04-18,1.1727967884774837
2018-04-19,1.1674741315204855
2018-04-20,1.1644102374175969
2018-04-23,1.1648116758839615
2018-04-24,1.153410783994656
2018-04-25,1.1492943276898437
2018-04-26,1.154384695828488
2018-04-27,1.1523872252316265
2018-04-30,1.1494729210119388
2018-05-01,1.155001473821008
2018-05-02,1.1568523430207067
2018-05-03,1.1520214884934405
2018-05-04,1.1567606162479969
2018-05-07,1.1653750646569032
2018-05-08,1.169216272515861
2018-05-09,1.179805064353189
2018-05-10,1.1788417297790674
2018-05-11,1.1719520976898397
2018-05-14,1.1681427616676279
2018-05-15,1.1669645688995078
2018-05-16,1.165032476364685
2018-05-17,1.1644146582330994
2018-05-18,1.165856778341147
2018-05-21,1.1758486037576972
2018-05-22,1.1712920441303827
2018-05-23,1.1793482695288464
2018-05-24,1.1829996099087534
2018-05-25,1.1845134256926817
2018-05-29,1.18268869203956
2018-05-30,1.1878076691833739
2018-05-31,1.1861231906474412
2018-06-01,1.190064161076847
2018-06-04,1.181208587213116
2018-06-05,1.1868639886711256
2018-06-06,1.186754815539281
2018-06-07,1.1855811488413661
2018-06-08,1.1846149444123073
2018-06-11,1.205790508310215
2018-06-12,1.2122140934712764
2018-06-13,1.2316216015351493
2018-06-14,1.2323540199577534
2018-06-15,1.2344217809471343
2018-06-18,1.265818641920815
2018-06-19,1.251469006597171
2018-06-20,1.2476354153406395
2018-06-21,1.210155004836833
2018-06-22,1.213346538964338
2018-06-25,1.1889783424840263
2018-06-26,1.1889783424840263
2018-06-27,1.1889783424840263
2018-06-28,1.1889783424840263
2018-06-29,1.1889783424840263
2018-07-02,1.1750156949648103
2018-07-03,1.1691085694596852
2018-07-05,1.1751776383914807
2018-07-06,1.1827813014732658
2018-07-09,1.1867850016655008
2018-07-10,1.1820776781683313
2018-07-11,1.1744592057086425
2018-07-12,1.1807903662245336
2018-07-13,1.1568381429235028
2018-07-16,1.1714603921697573
2018-07-17,1.166818000177342
2018-07-18,1.1661074523610324
2018-07-19,1.161133685408433
2018-07-20,1.1536731366218886
2018-07-23,1.1434016543182146
2018-07-24,1.1110824065066107
2018-07-25,1.1243112481516393
2018-07-26,1.2041095794520973
2018-07-27,1.2111640023813521
2018-07-30,1.2136511473379619
2018-07-31,1.1749271722494807
2018-08-01,1.1802561453486655
2018-08-02,1.1912694332167588
2018-08-03,1.1806114192568202
2018-08-06,1.20875586244559
2018-08-07,1.2151953857786455
2018-08-08,1.1937491984544517
2018-08-09,1.1766964574324332
2018-08-10,1.1752753617998137
2018-08-13,1.1927538576825827
2018-08-14,1.212660210836435
2018-08-15,1.197075487718078
2018-08-16,1.1869756685871267
2018-08-17,1.2079167006572902
2018-08-20,1.2173292040528192
2018-08-21,1.2321722745238186
2018-08-22,1.2613349711303457
2018-08-23,1.3247710571910254
2018-08-24,1.400270431389731
2018-08-27,1.4503510594941345
2018-08-28,1.4201785928778472
2018-08-29,1.420569007627215
2018-08-30,1.4071395503863724
2018-08-31,1.4209593628076556
2018-09-04,1.4313862395182015
2018-09-05,1.4241231216261185
2018-09-06,1.4598457028148157
2018-09-07,1.4654919704942477
2018-09-10,1.491056191733405
2018-09-11,1.5002942455639423
2018-09-12,1.4664900273920911
2018-09-13,1.460712198859869
2018-09-14,1.4668803825725318
2018-09-17,1.471553022904433
2018-09-18,1.48122290285699
2018-09-19,1.4685135527037532
2018-09-20,1.4617637840722062
2018-09-21,1.453040265558789
2018-09-24,1.4788684946827613
2018-09-25,1.4921470958329384
2018-09-26,1.4825938236383627
2018-09-27,1.4639582294798235
2018-09-28,1.4534869203300036
2018-10-01,1.4386208188495548
2018-10-02,1.3978920307510896
2018-10-03,1.3978920307510896
2018-10-04,1.3978920307510896
2018-10-05,1.3978920307510896
2018-10-08,1.3974283419117735
2018-10-09,1.4020850232874664
2018-10-10,1.3785266036935706
2018-10-11,1.3785266036935706
2018-10-12,1.3785266036935706
2018-10-15,1.380849832324734
2018-10-16,1.3873304646324383
2018-10-17,1.395217129330331
2018-10-18,1.392404843566887
2018-10-19,1.3925271024490105
2018-10-22,1.3932782475353431
2018-10-23,1.3950912804684976
2018-10-24,1.3896466902440627
2018-10-25,1.40094965731203
2018-10-26,1.3946491444211964
2018-10-29,1.4004194463255168
2018-10-30,1.4004194463255168
2018-10-31,1.4004194463255168
2018-11-01,1.4004194463255168
2018-11-02,1.4004194463255168
2018-11-05,1.4004194463255168
2018-11-06,1.4004194463255168
2018-11-07,1.4004194463255168
2018-11-08,1.4004194463255168
2018-11-09,1.4004194463255168
2018-11-12,1.4004194463255168
2018-11-13,1.4004194463255168
2018-11-14,1.4004194463255168
2018-11-15,1.4004194463255168
2018-11-16,1.4004194463255168
2018-11-19,1.4004194463255168
2018-11-20,1.4004194463255168
2018-11-21,1.4004194463255168
2018-11-23,1.4004194463255168
2018-11-26,1.4004194463255168
2018-11-27,1.4004194463255168
2018-11-28,1.4004194463255168
2018-11-29,1.4004194463255168
2018-11-30,1.4004194463255168
2018-12-03,1.4004194463255168
2018-12-04,1.4004194463255168
2018-12-06,1.4004194463255168
2018-12-07,1.4004194463255168
2018-12-10,1.4004194463255168
2018-12-11,1.4004194463255168
2018-12-12,1.4004194463255168
2018-12-13,1.4004194463255168
2018-12-14,1.4004194463255168
2018-12-17,1.4004194463255168
2018-12-18,1.4004194463255168
2018-12-19,1.4004194463255168
2018-12-20,1.4004194463255168
2018-12-21,1.4004194463255168
2018-12-24,1.4004194463255168
2018-12-26,1.4004194463255168
2018-12-27,1.4004194463255168
2018-12-28,1.4004194463255168
2018-12-31,1.4004194463255168
2019-01-02,1.4004194463255168
2019-01-03,1.4004194463255168
2019-01-04,1.4004194463255168
2019-01-07,1.4004194463255168
2019-01-08,1.4004194463255168
2019-01-09,1.4004194463255168
2019-01-10,1.4004194463255168
2019-01-11,1.4004194463255168
2019-01-14,1.4004194463255168
2019-01-15,1.4004194463255168
2019-01-16,1.4004194463255168
2019-01-17,1.4004194463255168
2019-01-18,1.4004194463255168
2019-01-22,1.4004194463255168
2019-01-23,1.4004194463255168
2019-01-24,1.4004194463255168
2019-01-25,1.4004194463255168
2019-01-28,1.4004194463255168
2019-01-29,1.4004194463255168
2019-01-30,1.4004194463255168
2019-01-31,1.4004194463255168
2019-02-01,1.4004194463255168
2019-02-04,1.4004194463255168
2019-02-05,1.4004194463255168
2019-02-06,1.4004194463255168
2019-02-07,1.4004194463255168
2019-02-08,1.4004194463255168
2019-02-11,1.4004194463255168
2019-02-12,1.4004194463255168
2019-02-13,1.4004194463255168
2019-02-14,1.4004194463255168
2019-02-15,1.4004194463255168
2019-02-19,1.3953312245174736
2019-02-20,1.405962130025444
2019-02-21,1.411115622277652
2019-02-22,1.434283607594613
2019-02-25,1.4476798290260349
2019-02-26,1.3837027668191193
2019-02-27,1.3784396681800526
2019-02-28,1.374143942467132
2019-03-01,1.3766979431277337
2019-03-04,1.351295071851788
2019-03-05,1.3261359906361059
2019-03-06,1.3345543814029466
2019-03-07,1.3449067015884264
2019-03-08,1.3603783105242366
2019-03-11,1.39223160006443
2019-03-12,1.3957582308472523
2019-03-13,1.4088408528317997
2019-03-14,1.4331858666703998
2019-03-15,1.4360299111542862
2019-03-18,1.4657841744342008
2019-03-19,1.4769105438139047
2019-03-20,1.4973605147077067
2019-03-21,1.5803844795424609
2019-03-22,1.5263606486405505
2019-03-25,1.5379546093156666
2019-03-26,1.5709311457166066
2019-03-27,1.535456303468432
2019-03-28,1.5502961022328168
2019-03-29,1.553194880116175
2019-04-01,1.5557540785023973
2019-04-02,1.5411908950105095
2019-04-03,1.5331270511998323
2019-04-04,1.4216864410608228
2019-04-05,1.4216864410608228
2019-04-08,1.4073887364516164
2019-04-09,1.393668439506707
2019-04-10,1.4465097356962178
2019-04-11,1.4462040972074033
2019-04-12,1.4429457072110585
2019-04-15,1.4405006407054062
2019-04-16,1.4203069363893936
2019-04-17,1.3780359377279514
2019-04-18,1.3631374844010171
2019-04-22,1.393682682535125
2019-04-23,1.428780984408292
2019-04-24,1.4418548751269329
2019-04-25,1.4071006711588014
2019-04-26,1.4258722181117098
2019-04-29,1.4263404205152073
2019-04-30,1.415350882208418
2019-05-01,1.3970705863117878
2019-05-02,1.4402731245829425
2019-05-03,1.456780613778762
2019-05-06,1.428135162773422
2019-05-07,1.377569192986077
2019-05-08,1.371969204020711
2019-05-09,1.3655210208047643
2019-05-10,1.3829993142719426
2019-05-13,1.3683509988260747
2019-05-14,1.3997426366210186
2019-05-15,1.40729743965311
2019-05-16,1.3900272027394496
2019-05-17,1.3766955461402897
2019-05-20,1.372138400119585
2019-05-21,1.368982517373989
2019-05-22,1.36591616951954
2019-05-23,1.3621458782511908
2019-05-24,1.3710047220343669
2019-05-28,1.3781913243327482
2019-05-29,1.3485766912632877
2019-05-30,1.351525279846739
2019-05-31,1.3466298852376763
2019-06-03,1.3447838688970712
2019-06-04,1.3447838688970712
2019-06-05,1.3447838688970712
2019-06-06,1.3447838688970712
2019-06-07,1.3447838688970712
2019-06-10,1.339891242092244
2019-06-11,1.301777059981822
2019-06-12,1.3092372153660308
2019-06-13,1.302386048871614
2019-06-14,1.2982971116160802
2019-06-17,1.2778759580816548
2019-06-18,1.300535962768774
2019-06-19,1.3511960887714607
2019-06-20,1.3430683297871604
2019-06-21,1.321452210074617
2019-06-24,1.2921411918747205
2019-06-25,1.2692904574583252
2019-06-26,1.2915308960703475
2019-06-27,1.308735765941109
2019-06-28,1.3009726124721768
2019-07-01,1.3099558342996973
2019-07-02,1.3264534819154281
2019-07-03,1.3283511531017536
2019-07-05,1.3356942595192975
2019-07-08,1.3626827253699179
2019-07-09,1.388080204710953
2019-07-10,1.3951202033418493
2019-07-11,1.3711786530944114
2019-07-12,1.3636144550548142
2019-07-15,1.4184850617823117
2019-07-16,1.39289464080531
2019-07-17,1.4047057847891828
2019-07-18,1.4046565389133883
2019-07-19,1.391901988676722
2019-07-22,1.4103063142907881
2019-07-23,1.4129371650451308
2019-07-24,1.4245476627483178
2019-07-25,1.423424534650409
2019-07-26,1.4376509487324827
2019-07-29,1.3901215450921907
2019-07-30,1.3866680505463818
2019-07-31,1.3544433235035174
2019-08-01,1.4050105959158388
2019-08-02,1.385222505167536
2019-08-05,1.3591093121845037
2019-08-06,1.3892096488155599
2019-08-07,1.4086511212225037
2019-08-08,1.4478926771234208
2019-08-09,1.4741116718383662
2019-08-12,1.4622186126716656
2019-08-13,1.4737422606040063
2019-08-14,1.4322924456441928
2019-08-15,1.4307512582223423
2019-08-16,1.4507863878874443
2019-08-19,1.4579329047418916
2019-08-20,1.4825149101617294
2019-08-21,1.5169426844686966
2019-08-22,1.5147754929061152
2019-08-23,1.4959254158700062
2019-08-26,1.530770770719653
2019-08-27,1.5530299177992455
2019-08-28,1.5303126737229444
2019-08-29,1.5259177171154978
2019-08-30,1.5082503863588728
2019-09-03,1.5058174331378036
2019-09-04,1.5001893990268464
2019-09-05,1.5135894281705689
2019-09-06,1.4871335683833193
2019-09-09,1.4537296366324859
2019-09-10,1.4572401804239372
2019-09-11,1.471957604381244
2019-09-12,1.471417447597302
2019-09-13,1.4722274715269168
2019-09-16,1.4794192467095262
2019-09-17,1.4956511009727256
2019-09-18,1.5171756644659706
2019-09-19,1.5045368128094354
2019-09-20,1.487190085895443
2019-09-23,1.5033317967283615
2019-09-24,1.483317728308417
2019-09-25,1.5163383601369236
2019-09-26,1.5112613597174314
2019-09-27,1.4764209375400168
2019-09-30,1.4834025954306578
2019-10-01,1.4765527738988842
2019-10-02,1.4568106446658902
2019-10-03,1.4678706724032764
2019-10-04,1.4950257473858022
2019-10-07,1.4929097304831094
2019-10-08,1.4537276984093968
2019-10-09,1.4769973348413803
2019-10-10,1.4790066121575638
2019-10-11,1.4968184810483904
2019-10-14,1.4895296780541818
2019-10-15,1.5162896214530472
2019-10-16,1.4902181480708998
2019-10-17,1.5015491054531345
2019-10-18,1.4887544647543396
2019-10-21,1.5175651747392154
2019-10-22,1.5060556033368973
2019-10-23,1.483159332810317
2019-10-24,1.5845587685875595
2019-10-25,1.5976171279761207
2019-10-28,1.6394074469624131
2019-10-29,1.6096653418188456
2019-10-30,1.6245338496530375
2019-10-31,1.5565244073921973
2019-11-01,1.5681626108937115
2019-11-04,1.574566632945436
2019-11-05,1.573701144036272
2019-11-06,1.5931229836793914
2019-11-07,1.6132231435917928
2019-11-08,1.6149103788320907
2019-11-11,1.6324580839082974
2019-11-12,1.6425198859190786
2019-11-13,1.6369375137840532
2019-11-14,1.6492613016412094
2019-11-15,1.6701441566658835
2019-11-18,1.663124911069735
2019-11-19,1.6773291760606193
2019-11-20,1.6548749663354312
2019-11-21,1.648322763375649
2019-11-22,1.5922382244999287
2019-11-25,1.5796322336520943
2019-11-26,1.5463521589370663
2019-11-27,1.5602970118615622
2019-11-29,1.5519353615992417
2019-12-02,1.554869152729014
2019-12-03,1.5613706948921755
2019-12-04,1.569963475448191
2019-12-05,1.562402370227292
2019-12-06,1.575367025753834
2019-12-09,1.5696747118420529
2019-12-10,1.601479851614567
2019-12-11,1.611009394806976
2019-12-12,1.6227429251797507
2019-12-13,1.619760303822825
2019-12-16,1.6907651499777678
2019-12-17,1.6701003936919996
2019-12-18,1.707700918597499
2019-12-19,1.7354397000256097
2019-12-20,1.745626004054885
2019-12-23,1.7740866411035567
2019-12-24,1.7929970694543418
2019-12-26,1.8026044541656403
2019-12-27,1.7979976411148126
2019-12-30,1.7625604654949845
2019-12-31,1.7747817295164232
2020-01-02,1.7977846586707158
2020-01-03,1.8182532672379352
2020-01-06,1.8435246070672573
2020-01-07,1.8870229275210235
2020-01-08,1.960367252961731
2020-01-09,1.9376542542409068
2020-01-10,1.925848061360062
2020-01-13,2.028514773403149
2020-01-14,2.0774008955495367
2020-01-15,2.0392306524703523
2020-01-16,2.016506219356457
2020-01-17,2.010388664032723
2020-01-21,2.071210587630663
2020-01-22,2.1229103280336923
2020-01-23,2.129014355781407
2020-01-24,2.1119506763319085
2020-01-27,2.1002417198778547
2020-01-28,2.1398070937445177
2020-01-29,2.176997088611185
2020-01-30,2.3213017615264926
2020-01-31,2.330964608670224
2020-02-03,2.4305915538971874
2020-02-04,2.449073087699749
2020-02-05,2.4376874475174364
2020-02-06,2.4347202923810887
2020-02-07,2.441287140656769
2020-02-10,2.493247014808264
2020-02-11,2.496120108259018
2020-02-12,2.5313003373040655
2020-02-13,2.5626376299714355
2020-02-14,2.557082158446182
2020-02-18,2.618674368369879
2020-02-19,2.735027594254987
2020-02-20,2.7079940986352353
2020-02-21,2.5948749222623206
2020-02-24,2.501237130593914
2020-02-25,2.4694544807203553
2020-02-26,2.4755775051891473
2020-02-27,2.439746913209638
2020-02-28,2.439746913209638
2020-03-02,2.465781834874038
2020-03-03,2.438179013083778
2020-03-04,2.522958487006041
2020-03-05,2.490965766169997
2020-03-06,2.483576186428267
2020-03-09,2.388317749346399
2020-03-10,2.388317749346399
2020-03-11,2.388317749346399
2020-03-12,2.388317749346399
2020-03-13,2.388317749346399
2020-03-16,2.388317749346399
2020-03-17,2.388317749346399
2020-03-18,2.388317749346399
2020-03-19,2.388317749346399
2020-03-20,2.388317749346399
2020-03-23,2.388317749346399
2020-03-24,2.388317749346399
2020-03-25,2.388317749346399
2020-03-26,2.388317749346399
2020-03-27,2.388317749346399
2020-03-30,2.388317749346399
2020-03-31,2.388317749346399
2020-04-01,2.388317749346399
2020-04-02,2.388317749346399
2020-04-03,2.388317749346399
2020-04-06,2.388317749346399
2020-04-07,2.388317749346399
2020-04-08,2.388317749346399
2020-04-09,2.388317749346399
2020-04-13,2.3698444703131774
2020-04-14,2.493899681377659
2020-04-15,2.577969570384604
2020-04-16,2.6191785277604533
2020-04-17,2.601523871448526
2020-04-20,2.7243232729571254
2020-04-21,2.568611582459582
2020-04-22,2.6097894746896926
2020-04-23,2.627084271108559
2020-04-24,2.690704039205107
2020-04-27,2.6901104380359024
2020-04-28,2.5780932255153686
2020-04-29,2.545374202298434
2020-04-30,2.5120202101240077
2020-05-01,2.477842484174044
2020-05-04,2.586191723320037
2020-05-05,2.7168789874786246
2020-05-06,2.7625850171945676
2020-05-07,2.7559340680493665
2020-05-08,2.7367803561511295
2020-05-11,2.844484792727787
2020-05-12,2.789527992235931
2020-05-13,2.859609980555443
2020-05-14,2.8447465016272666
2020-05-15,2.883863473209262
2020-05-18,2.7874517168680186
2020-05-19,2.811088210912334
2020-05-20,2.9062209148111053
2020-05-21,2.917508741898292
2020-05-22,2.984008609780515
2020-05-26,2.761484914152848
2020-05-27,2.7091919949554475
2020-05-28,2.7091919949554475
2020-05-29,2.7091919949554475
2020-06-01,2.7981726629196277
2020-06-02,2.7777075893085272
2020-06-03,2.772029480154732
2020-06-04,2.689696085157444
2020-06-05,2.6578132486509958
2020-06-08,2.665232620981617
2020-06-09,2.6518454622729584
2020-06-10,2.6947101755242606
2020-06-11,2.598417942037628
2020-06-12,2.5866542789509093
2020-06-15,2.6949982177595393
2020-06-16,2.7367566346772474
2020-06-17,2.712512566536505
2020-06-18,2.7354247214010474
2020-06-19,2.7087439438015615
2020-06-22,2.791972196016995
2020-06-23,2.7681936689077444
2020-06-24,2.7326736013392647
2020-06-25,2.770153991864328
2020-06-26,2.6481222904731547
2020-06-29,2.6116289908952384
2020-06-30,2.668034042656198
2020-07-01,2.6420874423882887
2020-07-02,2.666529553056941
2020-07-06,2.6252062686833026
2020-07-07,2.633002175388225
2020-07-08,2.717714543806072
2020-07-09,2.767126074229285
2020-07-10,2.766087875926667
2020-07-13,2.6228847436537084
2020-07-14,2.5828731845194963
2020-07-15,2.5828731845194963
2020-07-16,2.5828731845194963
2020-07-17,2.5828731845194963
2020-07-20,2.7442969330811766
2020-07-21,2.6600733837322004
2020-07-22,2.662611090339139
2020-07-23,2.5098928764512918
2020-07-24,2.462265732525891
2020-07-27,2.563850976868915
2020-07-28,2.5048293232614594
2020-07-29,2.5500170592940714
2020-07-30,2.5631415126924186
2020-07-31,2.5200455090908616
2020-08-03,2.5937545905560393
2020-08-04,2.594574589381619
2020-08-05,2.613182391247997
2020-08-06,2.5946976708545737
2020-08-07,2.4990603291093145
2020-08-10,2.4257674119709938
2020-08-11,2.3900482182270872
2020-08-12,2.3900482182270872
2020-08-13,2.3900482182270872
2020-08-14,2.3900482182270872
2020-08-17,2.5078984620520464
2020-08-18,2.533497936787411
2020-08-19,2.519100271812452
2020-08-20,2.6314199983547577
2020-08-21,2.680871221699963
2020-08-24,2.64474765404012
2020-08-25,2.6988636765335894
2020-08-26,2.786576075057045
2020-08-27,2.815242586040933
2020-08-28,2.8226538459233614
2020-08-31,2.890261949512374
2020-09-01,2.9100601416220386
2020-09-02,2.881527479126302
2020-09-03,2.8028442522674277
2020-09-04,2.8028442522674277
2020-09-08,2.804883141533808
2020-09-09,2.8315635458548294
2020-09-10,2.8239031491495115
2020-09-11,2.810213422927749
2020-09-14,2.824496192957131
2020-09-15,2.8554497318865035
2020-09-16,2.8506491339328326
2020-09-17,2.818791703326463
2020-09-18,2.829416288589459
2020-09-21,2.872988400853206
2020-09-22,2.906039816775195
2020-09-23,2.8491919666281635
2020-09-24,2.827808463296302
2020-09-25,2.8566613409790786
2020-09-28,2.873845411117948
2020-09-29,2.8701595792513155
2020-09-30,2.886782836651652
2020-10-01,2.923603005331982
2020-10-02,2.890742515246423
2020-10-05,2.9290987651476215
2020-10-06,2.9264292047042693
2020-10-07,2.9520010294941423
2020-10-08,2.943873783907846
2020-10-09,2.9639611075254724
2020-10-12,2.9803201339066048
2020-10-13,3.017353294554219
2020-10-14,2.9751524378186422
2020-10-15,2.9497763563845534
2020-10-16,2.9520834270456895
2020-10-19,2.938021271588326
2020-10-20,2.9296742302752534
2020-10-21,2.890776601752632
2020-10-22,2.8788200460685935
2020-10-23,2.8788200460685935
2020-10-26,2.8593622788352984
2020-10-27,2.858294602117534
2020-10-28,2.8289541262435063
2020-10-29,2.871508891898689
2020-10-30,2.7977105160440567
2020-11-02,2.810034741984325
2020-11-03,2.8404592708659084
2020-11-04,2.851970141534071
2020-11-05,2.936525934465239
2020-11-06,2.9497452280968486
2020-11-09,2.952293579413245
2020-11-10,2.943373468609524
2020-11-11,2.989668123373611
2020-11-12,2.9576075402396116
2020-11-13,2.969256005125202
2020-11-16,3.0202318197598297
2020-11-17,3.0144121294128654
2020-11-18,2.9917285828226725
2020-11-19,2.9965035829379083
2020-11-20,2.977661950295004
2020-11-23,2.9686634438771957
2020-11-24,2.9946852111143456
2020-11-25,2.9790127480654287
2020-11-27,2.982746150488363
2020-11-30,2.9955715987800753
2020-12-01,3.0221263295937497
2020-12-02,3.0049694127524553
2020-12-03,3.006815037712237
2020-12-04,3.062384952198579
2020-12-07,3.063684770786792
2020-12-08,3.067929580400881
2020-12-09,3.0491394139660852
2020-12-10,3.0435866948364025
2020-12-11,3.011952947071641
2020-12-14,3.0010782994013154
2020-12-15,2.9908823145333723
2020-12-16,2.9980941017255756
2020-12-17,3.163594164748142
2020-12-18,3.1896789966303194
2020-12-21,3.2101876453742877
2020-12-22,3.2610208924273403
2020-12-23,3.1689164790826276
2020-12-24,3.1849152280957838
2020-12-28,3.117384709009236
2020-12-29,3.113124477956021
2020-12-30,3.1139380912941053
2020-12-31,3.0977984356815793
2021-01-04,3.0432471899307205
2021-01-05,3.0432471899307205
2021-01-06,3.0432471899307205
2021-01-07,3.0432471899307205
2021-01-08,3.0432471899307205
2021-01-11,3.03324037645396
2021-01-12,3.110946595423635
2021-01-13,3.0710682083572323
2021-01-14,3.048768029505946
2021-01-15,2.9734479136556606
2021-01-19,3.022788653469652
2021-01-20,3.063361887139985
2021-01-21,3.0173175848608356
2021-01-22,3.037418429791148
2021-01-25,3.0060515142705126
2021-01-26,3.01015385834829
2021-01-27,2.976242481240957
2021-01-28,2.9247751445479073
2021-01-29,2.847604845175715
2021-02-01,2.855595300180338
2021-02-02,2.883720797705974
2021-02-03,2.846182316679661
2021-02-04,2.917497729018824
2021-02-05,2.9075010123195915
2021-02-08,2.9289143262198056
2021-02-09,2.9417573572206765
2021-02-10,2.9955373730586246
2021-02-11,3.0822570371098665
2021-02-12,3.1471062703163275
2021-02-16,3.162605953120039
2021-02-17,3.096755319846887
2021-02-18,3.088026808504302
2021-02-19,3.118702277351102
2021-02-22,2.9679956608187346
2021-02-23,2.939737595984332
2021-02-24,2.939737595984332
2021-02-25,2.939737595984332
2021-02-26,2.939737595984332
2021-03-01,2.947937191156214
2021-03-02,2.890599336027109
2021-03-03,2.862713992080309
2021-03-04,2.822148092144959
2021-03-05,2.822148092144959
2021-03-08,2.74957434650935
2021-03-09,2.8368451707863893
2021-03-10,2.796225433458426
2021-03-11,2.855501296775914
2021-03-12,2.8250951313100763
2021-03-15,2.837388366353594
2021-03-16,2.8805826061740043
2021-03-17,2.915865641293223
2021-03-18,2.8413625984403126
2021-03-19,2.850486971682818
2021-03-22,2.8845792750031216
2021-03-23,2.8192887198525116
2021-03-24,2.8488112101068666
2021-03-25,2.8401794813734966
2021-03-26,2.8959719394083043
2021-03-29,2.8886915963558435
2021-03-30,2.878802549942358
2021-03-31,2.9267702294516735
2021-04-01,2.988706637183594
2021-04-05,3.043136955381922
2021-04-06,2.9990901797566822
2021-04-07,3.0121431299848207
2021-04-08,3.0314914906872064
2021-04-09,3.0560168265628285
2021-04-12,2.967312790753953
2021-04-13,2.963654928783322
2021-04-14,2.9344312776641006
2021-04-15,2.954830561643255
2021-04-16,2.9444904968194097
2021-04-19,2.9091896227590213
2021-04-20,2.9091896227590213
2021-04-21,2.9091896227590213
2021-04-22,2.9091896227590213
2021-04-23,2.9091896227590213
2021-04-26,2.9349975313815295
2021-04-27,2.921732492462241
2021-04-28,2.922413071174035
2021-04-29,2.909825829074008
2021-04-30,2.8839009400442515
2021-05-03,2.88969223439239
2021-05-04,2.7952363751638662
2021-05-05,2.7774577012513264
2021-05-06,2.7842736972514084
2021-05-07,2.8088347067860022
2021-05-10,2.783713698069963
2021-05-11,2.765048593354295
2021-05-12,2.7297908846349204
2021-05-13,2.7421965774359336
2021-05-14,2.748890251497092
2021-05-17,2.7476070874929555
2021-05-18,2.737576974517861
2021-05-19,2.7252427888894353
2021-05-20,2.725064365712808
2021-05-21,2.7278311270666604
2021-05-24,2.7585138358340027
2021-05-25,2.767170060934532
2021-05-26,2.770449576803639
2021-05-27,2.7898002770502552
2021-05-28,2.770401702681246
2021-06-01,2.7795264939825426
2021-06-02,2.7858599384885556
2021-06-03,2.7798284544326544
2021-06-04,2.814394773298231
2021-06-07,2.850509387372222
2021-06-08,2.844040067382309
2021-06-09,2.828513335559852
2021-06-10,2.8181866435498817
2021-06-11,2.818390339297431
2021-06-14,2.8395437142361164
2021-06-15,2.8282444834384997
2021-06-16,2.803905067679061
2021-06-17,2.8272142554936837
2021-06-18,2.7978093873017444
2021-06-21,2.8084990084430004
2021-06-22,2.8718954422614074
2021-06-23,2.891379792199443
2021-06-24,2.9136172735241272
2021-06-25,2.8927592879254482
2021-06-28,3.0255678219090556
2021-06-29,3.0126025547239053
2021-06-30,2.99284009003424
2021-07-01,3.0372282246379108
2021-07-02,3.0591839951547506
2021-07-06,3.066805553032757
2021-07-07,3.032468015462377
2021-07-08,2.9765153766157244
2021-07-09,3.0080541035797608
2021-07-12,3.0544861366548903
2021-07-13,3.0302046483286595
2021-07-14,2.980421076348981
2021-07-15,2.9394185057272404
2021-07-16,2.9252529044934548
2021-07-19,2.910864731560175
2021-07-20,2.925127042230031
2021-07-21,2.9337164962209576
2021-07-22,2.943720407538106
2021-07-23,2.9541035877175728
2021-07-26,2.8954344997456225
2021-07-27,2.8372060436883886
2021-07-28,2.837482970159288
2021-07-29,2.8409974915192233
2021-07-30,2.8475014952530286
2021-08-02,2.8802432729556458
2021-08-03,2.937015796430342
2021-08-04,3.0291473872977903
2021-08-05,2.9456089953092857
2021-08-06,2.910044408809245
2021-08-09,2.880214619301898
2021-08-10,2.8727776775850637
2021-08-11,2.8758402288418967
2021-08-12,2.8826793843766096
2021-08-13,2.8882501743957536
2021-08-16,2.870254803118167
2021-08-17,2.8543887163292867
2021-08-18,2.8467789643893626
2021-08-19,2.8592626430259185
2021-08-20,2.8484425131197777
2021-08-23,2.8733125300493607
2021-08-24,2.907296996102085
2021-08-25,2.906574393077329
2021-08-26,2.860436469225686
2021-08-27,2.89815653195165
2021-08-30,2.9305149193151894
2021-08-31,2.943877845285837
2021-09-01,2.913654272964951
2021-09-02,2.9566617935189528
2021-09-03,2.9944109824397986
2021-09-07,2.9632553696201076
2021-09-08,2.974968648151069
2021-09-09,2.9868205747275307
2021-09-10,2.9016218304058974
2021-09-13,2.8796505620398163
2021-09-14,2.970396268814833
2021-09-15,2.97587260279854
2021-09-16,3.0477128246533036
2021-09-17,3.029060200437539
2021-09-20,2.9671181895383194
2021-09-21,2.9986008827584807
2021-09-22,3.099250373361819
2021-09-23,3.096596974367074
2021-09-24,3.0768211833899253
2021-09-27,2.9459735165049166
2021-09-28,2.8272761976472465
2021-09-29,2.8272761976472465
2021-09-30,2.8272761976472465
2021-10-01,2.8272761976472465
2021-10-04,2.770751667391705
2021-10-05,2.8061515095449527
2021-10-06,2.8339320193835666
2021-10-07,2.8381411819274343
2021-10-08,2.792780977881711
2021-10-11,2.808826658888251
2021-10-12,2.852361470296641
2021-10-13,2.938449969884066
2021-10-14,2.918759250928767
2021-10-15,2.9281208281529136
2021-10-18,2.961221670386986
2021-10-19,2.9699909913576894
2021-10-20,2.969088814804464
2021-10-21,2.986837124592242
2021-10-22,2.987112347180484
2021-10-25,3.0045596755145523
2021-10-26,2.9894758961178987
2021-10-27,2.950397862343551
2021-10-28,2.979856099337775
2021-10-29,3.035196043879275
2021-11-01,2.9907944849940424
2021-11-02,3.0200219160168933
2021-11-03,3.014088287837109
2021-11-04,3.0558470678929224
2021-11-05,3.1786395217673196
2021-11-08,3.2314892000746482
2021-11-09,3.2655221017640548
2021-11-10,3.193883931653012
2021-11-11,3.191835789982294
2021-11-12,3.232905438973532
2021-11-15,3.2153386481092516
2021-11-16,3.2619423940880514
2021-11-17,3.2241304582049137
2021-11-18,3.222415686796048
2021-11-19,3.235296508202061
2021-11-22,3.108913197670738
2021-11-23,3.084123595850107
2021-11-24,3.084123595850107
2021-11-26,3.084123595850107
2021-11-29,3.1754222226191082
2021-11-30,3.107411797375476
2021-12-01,2.957805055522555
2021-12-02,3.0061031191875145
2021-12-03,2.88122898861891
2021-12-06,2.853731792814921
2021-12-07,2.9054691064933666
2021-12-08,2.903597294710369
2021-12-09,2.8928750204096767
2021-12-10,2.884280606682202
2021-12-13,2.8354985245610234
2021-12-14,2.8090630440604443
2021-12-15,2.892095592679082
2021-12-16,2.807738160134992
2021-12-17,2.8317344298414695
2021-12-20,2.86690532708732
2021-12-21,2.897176043368085
2021-12-22,2.9346229121950147
2021-12-23,2.9514432304836244
2021-12-27,2.9997691863629856
2021-12-28,2.9637039505492284
2021-12-29,2.9766520050359886
2021-12-30,2.950045514771901
2021-12-31,2.9512263118566686
2022-01-03,2.9629213984608906
2022-01-04,2.971333984147658
2022-01-05,2.871224969072461
2022-01-06,2.8447469508802055
2022-01-07,2.834347702217387
2022-01-10,2.8349040087433033
2022-01-11,2.8441958773014955
2022-01-12,2.851004985795199
2022-01-13,2.856237435789093
2022-01-14,2.893095108795351
2022-01-18,2.8498375252892627
2022-01-19,2.82753151576482
2022-01-20,2.81555952642652
2022-01-21,2.8138747648662505
2022-01-24,2.804497306548506
2022-01-25,2.804497306548506
2022-01-26,2.804497306548506
2022-01-27,2.804497306548506
2022-01-28,2.804497306548506
2022-01-31,2.804497306548506
2022-02-01,2.804497306548506
2022-02-02,2.804497306548506
2022-02-03,2.804497306548506
2022-02-04,2.804497306548506
2022-02-07,2.804497306548506
2022-02-08,2.804497306548506
2022-02-09,2.804497306548506
2022-02-10,2.804497306548506
2022-02-11,2.804497306548506
2022-02-14,2.804497306548506
2022-02-15,2.804497306548506
2022-02-16,2.804497306548506
2022-02-17,2.804497306548506
2022-02-18,2.804497306548506
2022-02-22,2.804497306548506
2022-02-23,2.804497306548506
2022-02-24,2.804497306548506
2022-02-25,2.804497306548506
2022-02-28,2.804497306548506
2022-03-01,2.804497306548506
2022-03-02,2.804497306548506
2022-03-03,2.804497306548506
2022-03-04,2.804497306548506
2022-03-07,2.804497306548506
2022-03-08,2.804497306548506
2022-03-09,2.804497306548506
2022-03-10,2.804497306548506
2022-03-11,2.804497306548506
2022-03-14,2.804497306548506
2022-03-15,2.804497306548506
2022-03-16,2.804497306548506
2022-03-17,2.804497306548506
2022-03-18,2.804497306548506
2022-03-21,2.804497306548506
2022-03-22,2.804497306548506
2022-03-23,2.804497306548506
2022-03-24,2.804497306548506
2022-03-25,2.804497306548506
2022-03-28,2.804497306548506
2022-03-29,2.804497306548506
2022-03-30,2.804497306548506
2022-03-31,2.804497306548506
2022-04-01,2.804497306548506
2022-04-04,2.804497306548506
2022-04-05,2.804497306548506
2022-04-06,2.804497306548506
2022-04-07,2.804497306548506
2022-04-08,2.804497306548506
2022-04-11,2.804497306548506
2022-04-12,2.804497306548506
2022-04-13,2.804497306548506
2022-04-14,2.804497306548506
2022-04-18,2.804497306548506
2022-04-19,2.804497306548506
2022-04-20,2.804497306548506
2022-04-21,2.804497306548506
2022-04-22,2.804497306548506
2022-04-25,2.804497306548506
2022-04-26,2.804497306548506
2022-04-27,2.804497306548506
2022-04-28,2.804497306548506
2022-04-29,2.804497306548506
2022-05-02,2.804497306548506
2022-05-03,2.804497306548506
2022-05-04,2.804497306548506
2022-05-05,2.804497306548506
2022-05-06,2.804497306548506
2022-05-09,2.804497306548506
2022-05-10,2.804497306548506
2022-05-11,2.804497306548506
2022-05-12,2.804497306548506
2022-05-13,2.804497306548506
2022-05-16,2.804497306548506
2022-05-17,2.804497306548506
2022-05-18,2.804497306548506
2022-05-19,2.804497306548506
2022-05-20,2.804497306548506
2022-05-23,2.804497306548506
2022-05-24,2.804497306548506
2022-05-25,2.804497306548506
2022-05-26,2.804497306548506
2022-05-27,2.804497306548506
2022-05-31,2.804497306548506
2022-06-01,2.804497306548506
2022-06-02,2.804497306548506
2022-06-03,2.804497306548506
2022-06-06,2.804497306548506
2022-06-07,2.804497306548506
2022-06-08,2.804497306548506
2022-06-09,2.804497306548506
2022-06-10,2.804497306548506
2022-06-13,2.804497306548506
2022-06-14,2.804497306548506
2022-06-15,2.804497306548506
2022-06-16,2.804497306548506
2022-06-17,2.804497306548506
2022-06-21,2.804497306548506
2022-06-22,2.804497306548506
2022-06-23,2.804497306548506
2022-06-24,2.804497306548506
2022-06-27,2.804497306548506
2022-06-28,2.804497306548506
2022-06-29,2.804497306548506
2022-06-30,2.804497306548506
2022-07-01,2.804497306548506
2022-07-05,2.804497306548506
2022-07-06,2.804497306548506
2022-07-07,2.804497306548506
2022-07-08,2.804497306548506
2022-07-11,2.804497306548506
2022-07-12,2.804497306548506
2022-07-13,2.804497306548506
2022-07-14,2.804497306548506
2022-07-15,2.804497306548506
2022-07-18,2.804497306548506
2022-07-19,2.804497306548506
2022-07-20,2.804497306548506
2022-07-21,2.804497306548506
2022-07-22,2.804497306548506
2022-07-25,2.804497306548506
2022-07-26,2.804497306548506
2022-07-27,2.804497306548506
2022-07-28,2.804497306548506
2022-07-29,2.804497306548506
2022-08-01,2.804497306548506
2022-08-02,2.804497306548506
2022-08-03,2.804497306548506
2022-08-04,2.804497306548506
2022-08-05,2.804497306548506
2022-08-08,2.804497306548506
2022-08-09,2.804497306548506
2022-08-10,2.804497306548506
2022-08-11,2.804497306548506
2022-08-12,2.804497306548506
2022-08-15,2.804497306548506
2022-08-16,2.804497306548506
2022-08-17,2.804497306548506
2022-08-18,2.804497306548506
2022-08-19,2.804497306548506
2022-08-22,2.804497306548506
2022-08-23,2.804497306548506
2022-08-24,2.804497306548506
2022-08-25,2.804497306548506
2022-08-26,2.804497306548506
2022-08-29,2.804497306548506
2022-08-30,2.804497306548506
2022-08-31,2.804497306548506
2022-09-01,2.804497306548506
2022-09-02,2.804497306548506
2022-09-06,2.804497306548506
2022-09-07,2.804497306548506
2022-09-08,2.804497306548506
2022-09-09,2.804497306548506
2022-09-12,2.804497306548506
2022-09-13,2.804497306548506
2022-09-14,2.804497306548506
2022-09-15,2.804497306548506
2022-09-16,2.804497306548506
2022-09-19,2.804497306548506
2022-09-20,2.804497306548506
2022-09-21,2.804497306548506
2022-09-22,2.804497306548506
2022-09-23,2.804497306548506
2022-09-26,2.804497306548506
2022-09-27,2.804497306548506
2022-09-28,2.804497306548506
2022-09-29,2.804497306548506
2022-09-30,2.804497306548506
2022-10-03,2.804497306548506
2022-10-04,2.804497306548506
2022-10-05,2.804497306548506
2022-10-06,2.804497306548506
2022-10-07,2.804497306548506
2022-10-10,2.804497306548506
2022-10-11,2.804497306548506
2022-10-12,2.804497306548506
2022-10-13,2.804497306548506
2022-10-14,2.804497306548506
2022-10-17,2.804497306548506
2022-10-18,2.804497306548506
2022-10-19,2.804497306548506
2022-10-20,2.804497306548506
2022-10-21,2.804497306548506
2022-10-24,2.804497306548506
2022-10-25,2.804497306548506
2022-10-26,2.804497306548506
2022-10-27,2.804497306548506
2022-10-28,2.804497306548506
2022-10-31,2.804497306548506
2022-11-01,2.804497306548506
2022-11-02,2.804497306548506
2022-11-03,2.804497306548506
2022-11-04,2.804497306548506
2022-11-07,2.804497306548506
2022-11-08,2.804497306548506
2022-11-09,2.804497306548506
2022-11-10,2.804497306548506
2022-11-11,2.804497306548506
2022-11-14,2.804497306548506
2022-11-15,2.804497306548506
2022-11-16,2.804497306548506
2022-11-17,2.804497306548506
2022-11-18,2.804497306548506
2022-11-21,2.804497306548506
2022-11-22,2.804497306548506
2022-11-23,2.804497306548506
2022-11-25,2.804497306548506
2022-11-28,2.804497306548506
2022-11-29,2.804497306548506
2022-11-30,2.804497306548506
2022-12-01,2.804497306548506
2022-12-02,2.804497306548506
2022-12-05,2.804497306548506
2022-12-06,2.804497306548506
2022-12-07,2.804497306548506
2022-12-08,2.804497306548506
2022-12-09,2.804497306548506
2022-12-12,2.804497306548506
2022-12-13,2.804497306548506
2022-12-14,2.804497306548506
2022-12-15,2.804497306548506
2022-12-16,2.804497306548506
2022-12-19,2.804497306548506
2022-12-20,2.804497306548506
2022-12-21,2.804497306548506
2022-12-22,2.804497306548506
2022-12-23,2.804497306548506
2022-12-27,2.804497306548506
2022-12-28,2.804497306548506
2022-12-29,2.804497306548506
2022-12-30,2.804497306548506
2023-01-03,2.804497306548506
2023-01-04,2.804497306548506
2023-01-05,2.804497306548506
2023-01-06,2.804497306548506
2023-01-09,2.804497306548506
2023-01-10,2.804497306548506
2023-01-11,2.804497306548506
2023-01-12,2.804497306548506
2023-01-13,2.804497306548506
2023-01-17,2.804497306548506
2023-01-18,2.804497306548506
2023-01-19,2.804497306548506
2023-01-20,2.804497306548506
2023-01-23,2.804497306548506
2023-01-24,2.804497306548506
2023-01-25,2.804497306548506
2023-01-26,2.804497306548506
2023-01-27,2.804497306548506
2023-01-30,2.804497306548506
2023-01-31,2.804497306548506
2023-02-01,2.804497306548506
2023-02-02,2.804497306548506
2023-02-03,2.804497306548506
2023-02-06,2.8200372824067523
2023-02-07,2.93489240412449
2023-02-08,2.8754804924361688
2023-02-09,2.842955039591843
2023-02-10,2.74236489088473
2023-02-13,2.8173056827446774
2023-02-14,2.8974119490175814
2023-02-15,2.8660201578930398
2023-02-16,2.7791814850089382
2023-02-17,2.7315423090721054
2023-02-21,2.673488061439445
2023-02-22,2.6764352505932267
2023-02-23,2.876128518507084
2023-02-24,2.8442503509917425
2023-02-27,2.855442426329727
2023-02-28,2.8571871983876234
2023-03-01,2.81637830717842
2023-03-02,2.8622012765331872
2023-03-03,2.9426165648142044
2023-03-06,2.918613599856125
2023-03-07,2.8994396801549263
2023-03-08,2.9614193507590474
2023-03-09,2.89847398985505
2023-03-10,2.858266114923203
2023-03-13,2.863727013004938
2023-03-14,2.988580585182909
2023-03-15,3.0141760097023793
2023-03-16,3.1305417932417825
2023-03-17,3.1067820786748617
2023-03-20,3.127114383193379
2023-03-21,3.16414841674535
2023-03-22,3.173162521217427
2023-03-23,3.239242879915002
2023-03-24,3.2181831825442826
2023-03-27,3.1891661968427676
2023-03-28,3.1726286070669643
2023-03-29,3.2294408213659316
2023-03-30,3.2659982436937125
2023-03-31,3.3084655836233985
2023-04-03,3.325522749591963
2023-04-04,3.297411977029488
2023-04-05,3.246283314033634
2023-04-06,3.27472500313404
2023-04-10,3.306022184161204
2023-04-11,3.2748925936525364
2023-04-12,3.23004170847866
2023-04-13,3.2525236031561677
2023-04-14,3.276832235217892
2023-04-17,3.2830752486829025
2023-04-18,3.3241376149647897
2023-04-19,3.333435829441761
2023-04-20,3.2674845809924333
2023-04-21,3.2677972814205325
2023-04-24,3.2622188308002915
2023-04-25,3.1896533138165455
2023-04-26,3.237849856794811
2023-04-27,3.2560497672701185
2023-04-28,3.29130417170568
2023-05-01,3.3967161724718857
2023-05-02,3.3260709200781395
2023-05-03,3.285409738573592
2023-05-04,3.2483320192761997
2023-05-05,3.319287833030793
2023-05-08,3.353954764386292
2023-05-09,3.3154533569670437
2023-05-10,3.334893182155456
2023-05-11,3.330334650302448
2023-05-12,3.302502305319628
2023-05-15,3.373892270298768
2023-05-16,3.391180186445352
2023-05-17,3.4780809831235517
2023-05-18,3.605153112202504
2023-05-19,3.570041319181238
2023-05-22,3.5800670077417287
2023-05-23,3.5377639163607695
2023-05-24,3.5423606743980414
2023-05-25,4.064729849623502
2023-05-26,4.1855184699097805
2023-05-30,4.266906423317005
2023-05-31,4.126518561682344
2023-06-01,4.303998758955841
2023-06-02,4.274136858628062
2023-06-05,4.256357098680085
2023-06-06,4.219899733624695
2023-06-07,4.095910669160311
2023-06-08,4.171520268681846
2023-06-09,4.191251805589997
2023-06-12,4.275572092134667
2023-06-13,4.38099902197527
2023-06-14,4.526229844361504
2023-06-15,4.553531604645691
2023-06-16,4.551218377581663
2023-06-20,4.646280910202237
2023-06-21,4.578826156438723
2023-06-22,4.596770248739583
2023-06-23,4.564683534918824
2023-06-26,4.397279839376146
2023-06-27,4.532230941546204
2023-06-28,4.470583965066358
2023-06-29,4.428308237984161
2023-06-30,4.560532979839003
2023-07-03,4.562299566017439
2023-07-05,4.605547088685593
2023-07-06,4.576948237284997
2023-07-07,4.5952210102948055
2023-07-10,4.594702992156941
2023-07-11,4.63481985222784
2023-07-12,4.801534234271528
2023-07-13,4.965654226727395
2023-07-14,4.904374408413387
2023-07-17,4.981669552816612
2023-07-18,5.059823780915671
2023-07-19,5.0552909298747775
2023-07-20,4.870003358923987
2023-07-21,4.742856231967428
2023-07-24,4.797240701485125
2023-07-25,4.9384777267005395
2023-07-26,4.900092226129958
2023-07-27,4.988029340734115
2023-07-28,5.086753022197354
2023-07-31,5.060866560794064
2023-08-01,5.08807364019507
2023-08-02,4.811341548167112
2023-08-03,4.820597568079827
2023-08-04,4.9182498195039495
2023-08-07,4.988379489420933
2023-08-08,4.8721347747013235
2023-08-09,4.679838427015785
2023-08-10,4.679838427015785
2023-08-11,4.679838427015785
2023-08-14,4.733521239313159
2023-08-15,4.717518289333059
2023-08-16,4.697942091981924
2023-08-17,4.630014942711606
2023-08-18,4.622899066057714
2023-08-21,4.636147281834386
2023-08-22,4.650467136560879
2023-08-23,4.671794547623199
2023-08-24,4.64528768387898
2023-08-25,4.6589980544957905
2023-08-28,4.682399656751884
2023-08-29,4.7277627327416445
2023-08-30,4.765439578834115
2023-08-31,4.758798965493927
2023-09-01,4.761236808430242
2023-09-05,4.716970431071909
2023-09-06,4.678350262612812
2023-09-07,4.685967186833281
2023-09-08,4.6749987973598
2023-09-11,4.675403614372878
2023-09-12,4.640036752075906
2023-09-13,4.595689719322976
2023-09-14,4.674264110837369
2023-09-15,4.640464745293292
2023-09-18,4.663659652125128
2023-09-19,4.528530730469678
2023-09-20,4.528530730469678
2023-09-21,4.528530730469678
2023-09-22,4.528530730469678
2023-09-25,4.511807423314176
2023-09-26,4.52494849451599
2023-09-27,4.542596060982136
2023-09-28,4.565836314613008
2023-09-29,4.572013995175064
2023-10-02,4.57675067933827
2023-10-03,4.496293978227992
2023-10-04,4.510419444207577
2023-10-05,4.519090435704711
2023-10-06,4.598808307436533
2023-10-09,4.638921946398419
2023-10-10,4.650658200759526
2023-10-11,4.7859586014743165
2023-10-12,4.793556635264876
2023-10-13,4.772717203086096
2023-10-16,4.809931496327909
2023-10-17,4.785361676047632
2023-10-18,4.78278216953734
2023-10-19,4.734641837337435
2023-10-20,4.67918218419289
2023-10-23,4.592737004979899
2023-10-24,4.578397941456034
2023-10-25,4.578397941456034
2023-10-26,4.578397941456034
2023-10-27,4.578397941456034
2023-10-30,4.589456883479822
2023-10-31,4.592221771818052
2023-11-01,4.602571623445751
2023-11-02,4.607179547946003
2023-11-03,4.601082978765443
2023-11-06,4.575867550237984
2023-11-07,4.6492374627487525
2023-11-08,4.657557903565392
2023-11-09,4.617500595086467
2023-11-10,4.7011387399201965
2023-11-13,4.7682941818657
2023-11-14,4.853396420056251
2023-11-15,4.823708696933147
2023-11-16,4.781655110935451
2023-11-17,4.815975724456649
2023-11-20,4.900469961831641
2023-11-21,4.744486077453349
2023-11-22,4.739925326362172
2023-11-24,4.701345270256388
2023-11-27,4.753102038247329
2023-11-28,4.7725161657519575
2023-11-29,5.036003747405131
2023-11-30,5.051857612293626
2023-12-01,5.058960359144381
2023-12-04,5.047795754576338
2023-12-05,5.132511022246595
2023-12-06,5.031424423805538
2023-12-07,5.061984016785329
2023-12-08,5.110595396329315
2023-12-11,5.173021070506948
2023-12-12,5.183022958447014
2023-12-13,5.265979894632991
2023-12-14,5.3833088356076715
2023-12-15,5.4519384545942415
2023-12-18,5.457758207737041
2023-12-19,5.476182485219656
2023-12-20,5.335660821662316
2023-12-21,5.3981071580970825
2023-12-22,5.39807783630541
2023-12-26,5.466416917083218
2023-12-27,5.4635928423627265
2023-12-28,5.472030108272831
2023-12-29,5.426154912627874
2024-01-02,5.1695873574541
2024-01-03,5.1695873574541
2024-01-04,5.1695873574541
2024-01-05,5.1695873574541
2024-01-08,5.3730151877461605
2024-01-09,5.557896993643284
2024-01-10,5.629498082561652
2024-01-11,5.645369797377091
2024-01-12,5.606477688392442
2024-01-16,5.860946034864356
2024-01-17,5.784462681315826
2024-01-18,5.900687827495041
2024-01-19,6.189811354695018
2024-01-22,6.161718590408514
2024-01-23,6.151875197155901
2024-01-24,6.364521958345829
2024-01-25,6.332108259348326
2024-01-26,6.243065929745253
2024-01-29,6.360053019461466
2024-01-30,6.26077328282891
2024-01-31,5.99813811650897
2024-02-01,6.06863244116977
2024-02-02,6.111729564100912
2024-02-05,6.09922488526899
2024-02-06,6.095325582995157
2024-02-07,6.256118566857714
2024-02-08,6.310092526054463
2024-02-09,6.374737897304511
2024-02-12,6.277612799444469
2024-02-13,6.105664557502031
2024-02-14,6.178773501547842
2024-02-15,6.12753065720751
2024-02-16,6.125674256083055
2024-02-20,5.931603637162638
2024-02-21,5.931603637162638
2024-02-22,5.931603637162638
2024-02-23,5.931603637162638
2024-02-26,5.98100477822426
2024-02-27,6.097700036884165
2024-02-28,5.944723233660573
2024-02-29,6.069916967958303
2024-03-01,6.274858504875148
2024-03-04,6.229641695417822
2024-03-05,6.134073095854426
2024-03-06,6.255229611036571
2024-03-07,6.38323089103894
2024-03-08,6.356749996715368
2024-03-11,6.058980415384983
2024-03-12,6.11437770717881
2024-03-13,6.215939213130882
2024-03-14,6.221068505036261
2024-03-15,6.217991008161011
2024-03-18,6.4754854143439164
2024-03-19,6.449325516884628
2024-03-20,6.597051236994945
2024-03-21,6.668349842437301
2024-03-22,6.63347010960488
2024-03-25,6.737397179700869
2024-03-26,6.58251484816811
2024-03-27,6.394824813757966
2024-03-28,6.416653201626759
2024-04-01,6.412771413505492
2024-04-02,6.413624645481477
2024-04-03,6.559207919550015
2024-04-04,6.476802955289999
2024-04-05,6.5801597329759485
2024-04-08,6.667793051230336
2024-04-09,6.585158793314232
2024-04-10,6.570343033110666
2024-04-11,6.736742493986385
2024-04-12,6.535001820002552
2024-04-15,6.307715026060122
2024-04-16,6.319157993029631
2024-04-17,6.246321030489536
2024-04-18,6.200361933219923
2024-04-19,6.200361933219923
2024-04-22,6.239426745455127
2024-04-23,6.278890170863992
2024-04-24,6.29935376885523
2024-04-25,6.236613854117758
2024-04-26,6.553226950176409
2024-04-29,6.437435140871539
2024-04-30,6.371192174926102
2024-05-01,6.391281299820921
2024-05-02,6.447720852101379
2024-05-03,6.459214858437111
2024-05-06,6.476200553278665
2024-05-07,6.539140453895822
2024-05-08,6.502272815166018
2024-05-09,6.512272100349138
2024-05-10,6.486295278389429
2024-05-13,6.497278366219293
2024-05-14,6.519566803903806
2024-05-15,6.56074016413625
2024-05-16,6.592916126014785
2024-05-17,6.630282102650965
2024-05-20,6.650545734672691
2024-05-21,6.670618668064753
2024-05-22,6.640551158740116
2024-05-23,6.582911495179404
2024-05-24,6.609995060704688
2024-05-28,6.640950316256884
2024-05-29,6.629767573241831
2024-05-30,6.553542462494438
2024-05-31,6.50630277642267
2024-06-03,6.532075605677943
2024-06-04,6.531698008528563
2024-06-05,6.783090941744497
2024-06-06,6.724568964138085
2024-06-07,6.669713737859676
2024-06-10,6.635607511049531
2024-06-11,6.463820940079002
2024-06-12,6.586660412438938
2024-06-13,6.712935946313659
2024-06-14,6.777935013413854
2024-06-17,6.800308529564233
2024-06-18,6.888082370242909
2024-06-20,6.6373092984511395
2024-06-21,6.412620774508804
2024-06-24,6.26193334413882
2024-06-25,6.242540605560229
2024-06-26,6.261576205892166
2024-06-27,6.252508584416443
2024-06-28,6.284552187617065
2024-07-01,6.365584006132114
2024-07-02,6.35239607503213
2024-07-03,6.617095809826351
2024-07-05,6.51070070365304
2024-07-08,6.643314995896844
2024-07-09,6.702992965446882
2024-07-10,6.812220167042161
2024-07-11,6.555168222598121
2024-07-12,6.593063867993916
2024-07-15,6.59566559698472
2024-07-16,6.508049870904449
2024-07-17,6.23638335088687
2024-07-18,6.23638335088687
2024-07-19,6.23638335088687
2024-07-22,6.257658931198504
2024-07-23,6.243770058523194
2024-07-24,5.989453552782129
2024-07-25,5.989453552782129
2024-07-26,5.989453552782129
2024-07-29,5.956337963827256
2024-07-30,5.9212140663803545
2024-07-31,5.945835712897806
2024-08-01,5.915542516875364
2024-08-02,5.869261032189822
2024-08-05,5.790865910734452
2024-08-06,5.795380828610858
2024-08-07,5.7518322398536395
2024-08-08,5.782149289616917
2024-08-09,5.7453494507554606
2024-08-12,5.683975583210417
2024-08-13,5.731929269317913
2024-08-14,5.760891418986498
2024-08-15,5.771336741388202
2024-08-16,5.8121687032097435
2024-08-19,5.85595464013911
2024-08-20,5.836072305655942
2024-08-21,5.8961618202068955
2024-08-22,5.794799511301213
2024-08-23,5.860077855693568
2024-08-26,5.769405344394333
2024-08-27,5.752512838458727
2024-08-28,5.622845408407908
2024-08-29,5.651771885754335
2024-08-30,5.683043962724751
2024-09-03,5.532889002197834
2024-09-04,5.536491602407582
2024-09-05,5.517127594070397
2024-09-06,5.524783130252708
2024-09-09,5.735436163561493
2024-09-10,5.767077306193097
2024-09-11,5.797009489216705
2024-09-12,5.7921965376323055
2024-09-13,5.797486958613083
2024-09-16,5.829711333203662
2024-09-17,5.819841370660344
2024-09-18,5.783394525535475
2024-09-19,5.822322080133505
2024-09-20,5.812059900262534
2024-09-23,5.8509603729575
2024-09-24,5.805866023920528
2024-09-25,5.807511616356462
2024-09-26,5.785722654201084
2024-09-27,5.774014267938974
2024-09-30,5.858916368908551
2024-10-01,5.827851553273617
2024-10-02,5.890278152554804
2024-10-03,6.056981609483979
2024-10-04,6.191302779927414
2024-10-07,6.14741892185147
2024-10-08,6.343142244380654
2024-10-09,6.416311415293788
2024-10-10,6.466411663509405
2024-10-11,6.514767616248356
2024-10-14,6.471401890324834
2024-10-15,6.39405283899696
2024-10-16,6.395036084897636
2024-10-17,6.356386526456838
2024-10-18,6.450230200182659
2024-10-21,6.746048241091321
2024-10-22,6.759115299499
2024-10-23,6.753521885734842
2024-10-24,6.788165445662513
2024-10-25,6.906134010055426
2024-10-28,7.014009979121014
2024-10-29,7.14902460050562
2024-10-30,7.079852558201087
2024-10-31,6.912088206561792
2024-11-01,6.779678531171848
2024-11-04,6.690052749743815
2024-11-05,6.883663183932997
2024-11-06,7.0289234326572805
2024-11-07,8.857422254583991
2024-11-08,9.107380579455883
2024-11-11,9.084336963290163
2024-11-12,9.065470969919836
2024-11-13,9.075349927080673
2024-11-14,8.972978176775264
2024-11-15,9.414027240169201
2024-11-18,9.09040505834314
2024-11-19,9.233226307236468
2024-11-20,9.178591635873893
2024-11-21,9.182957963341327
2024-11-22,9.400592583150683
2024-11-25,9.417870845935237
2024-11-26,9.518440329703331
2024-11-27,9.480824013100648
2024-11-29,9.610806784373237
2024-12-02,9.642369187549487
2024-12-03,9.969125756290266
2024-12-04,10.331948939767114
2024-12-05,10.388781595611935
2024-12-06,10.729869331658987
2024-12-09,10.210761329409154
2024-12-10,10.182031263173688
2024-12-11,10.182031263173688
2024-12-12,10.182031263173688
2024-12-13,10.182031263173688
2024-12-16,10.71298413966863
2024-12-17,10.812603682622033
2024-12-18,9.848731877278773
2024-12-19,9.937234364715398
2024-12-20,10.28453353239678
2024-12-23,10.346777161998443
2024-12-24,10.404083968625818
2024-12-26,10.465802205842145
2024-12-27,10.097094670479436
2024-12-30,9.98347373888964
2024-12-31,9.64576810158853
2025-01-02,9.925948968976062
2025-01-03,10.064400291292339
2025-01-06,9.969592325121942
2025-01-07,9.202400722470902
2025-01-08,9.202400722470902
2025-01-10,9.202400722470902
2025-01-13,9.322531074024479
2025-01-14,9.317387298466157
2025-01-15,9.368330790542254
2025-01-16,9.415531502838855
2025-01-17,9.646992123781695
2025-01-21,9.656875309923677
2025-01-22,9.692523955530833
2025-01-23,9.703395574840346
2025-01-24,9.707715075568066
2025-01-27,9.299274504555726
2025-01-28,9.299274504555726
2025-01-29,9.299274504555726
2025-01-30,9.299274504555726
2025-01-31,9.299274504555726
2025-02-03,9.482619543934627
2025-02-04,10.162991044017769
2025-02-05,10.01247319650147
2025-02-06,10.381585169566526
2025-02-07,10.336818670816529
2025-02-10,10.562188153088165
2025-02-11,10.385084252650977
2025-02-12,10.55682754434319
2025-02-13,11.109942879647381
2025-02-14,11.14621150096
2025-02-18,11.831590751227898
2025-02-19,11.710674872588642
2025-02-20,11.710674872588642
2025-02-21,11.710674872588642
2025-02-24,11.73966282878212
2025-02-25,11.528832089490884
2025-02-26,11.500241762060334
2025-02-27,11.54112265954447
2025-02-28,11.603112484649447
2025-03-03,11.63223154417533
2025-03-04,11.514976240628032
2025-03-05,11.525288061390716
2025-03-06,11.541319542092813
2025-03-07,11.577925504502584
2025-03-10,11.566970581771592
2025-03-11,11.566970581771592
2025-03-12,11.566970581771592
2025-03-13,11.566970581771592
2025-03-14,11.566970581771592
2025-03-17,11.566970581771592
2025-03-18,11.566970581771592
2025-03-19,11.566970581771592
2025-03-20,11.566970581771592
2025-03-21,11.566970581771592
2025-03-24,11.566970581771592
2025-03-25,11.566970581771592
2025-03-26,11.566970581771592
2025-03-27,11.566970581771592
2025-03-28,11.566970581771592
2025-03-31,11.566970581771592
2025-04-01,11.566970581771592
2025-04-02,11.566970581771592
2025-04-03,11.566970581771592
2025-04-04,11.566970581771592
2025-04-07,11.566970581771592
2025-04-08,11.566970581771592
2025-04-09,11.566970581771592
2025-04-10,11.566970581771592
2025-04-11,11.566970581771592
2025-04-14,11.566970581771592
2025-04-15,11.566970581771592
2025-04-16,11.566970581771592
2025-04-17,11.566970581771592
2025-04-21,11.566970581771592
2025-04-22,11.566970581771592
2025-04-23,11.566970581771592
2025-04-24,11.566970581771592
2025-04-25,11.566970581771592
2025-04-28,11.566970581771592
2025-04-29,11.566970581771592
2025-04-30,11.566970581771592
2025-05-01,11.566970581771592
2025-05-02,11.566970581771592
2025-05-05,11.566970581771592
2025-05-06,11.566970581771592
2025-05-07,11.566970581771592
2025-05-08,11.566970581771592
2025-05-09,11.566970581771592
2025-05-12,11.566970581771592
2025-05-13,11.566970581771592
2025-05-14,11.566970581771592
2025-05-15,11.566970581771592
2025-05-16,11.566970581771592
2025-05-19,11.650468237339044
2025-05-20,11.618083131879128
2025-05-21,11.436880397102438
2025-05-22,11.525254912012228
2025-05-23,11.352001260723968
2025-05-27,11.462056995612532
2025-05-28,11.469196359793361
2025-05-29,11.390691928688076
2025-05-30,11.869372896269017
2025-06-02,11.949159500275055
2025-06-03,12.021375599947536
2025-06-04,11.811260657291877
2025-06-05,11.320316401200994
2025-06-06,11.0579186445179
2025-06-09,10.747241245578566
2025-06-10,10.71223160256526
2025-06-11,10.7441699763872
2025-06-12,10.575992579625112
2025-06-13,10.585462669811438
2025-06-16,10.591267368562242
2025-06-17,10.563303541635005
2025-06-18,10.592881938401145
2025-06-20,10.411907172518013
2025-06-23,10.59346902613396
2025-06-24,10.753402935357368
2025-06-25,10.70894965180654
2025-06-26,10.79310730680276
2025-06-27,10.758322980039203
2025-06-30,10.933364783707727
2025-07-01,10.820680800729285
2025-07-02,11.120205830514935
2025-07-03,11.394395968441785
2025-07-07,11.286055337018983
2025-07-08,11.284683319628051
2025-07-09,11.389874241835088
2025-07-10,11.012414558859904
2025-07-11,10.891855265626827
2025-07-14,10.903889149417452
2025-07-15,11.387094881401342
2025-07-16,11.70440833057673
2025-07-17,11.894767118497263
2025-07-18,11.689067350145155
2025-07-21,11.643771144935805
2025-07-22,11.429411081603979
2025-07-23,11.665735165712732
2025-07-24,11.81662402315518
2025-07-25,12.032656365149716
2025-07-28,12.361157274333774
2025-07-29,12.55557770615441
2025-07-30,12.647148522490003
2025-07-31,12.604298271201348
2025-08-01,12.16170077009119
2025-08-04,12.357021955970493
2025-08-05,12.168781727526067
2025-08-06,11.387158003277827
2025-08-07,11.387158003277827
2025-08-08,11.387158003277827
2025-08-11,11.339229731017433
2025-08-12,11.496612210679624
2025-08-13,11.843539250042037
2025-08-14,11.507546339090181
2025-08-15,11.286614120385565
2025-08-18,11.30267954444816
2025-08-19,10.83578935027953
2025-08-20,10.737867702215912
2025-08-21,10.737867702215912
2025-08-22,10.737867702215912
2025-08-25,10.85604751095552
2025-08-26,11.0956687064804
2025-08-27,10.981130834660366
2025-08-28,11.297823276762823
2025-08-29,11.224985642041602
2025-09-02,11.177828971173755
2025-09-03,11.291369730007002
2025-09-04,11.633310986926022
2025-09-05,11.578368053689477
2025-09-08,12.248088902962632
2025-09-09,12.2777625048592
2025-09-10,12.33959701149382
2025-09-11,12.498640024539286
2025-09-12,12.566052558586456
2025-09-15,12.873926311635
2025-09-16,12.977973543730714
2025-09-17,13.038023033528928
2025-09-18,13.380959363124077
2025-09-19,13.768632519864592
2025-09-22,13.84008617559171
2025-09-23,13.659852436524531
2025-09-24,13.504596477027722
2025-09-25,13.361839135879865
2025-09-26,13.727043857291385
2025-09-29,14.238839216021528
2025-09-30,14.164435046445462
2025-10-01,14.373106650565987
2025-10-02,14.342749669056538
2025-10-03,14.256333420070707
2025-10-06,13.980686240142512
2025-10-07,14.074085733820215
2025-10-08,14.115954959566121
2025-10-09,14.175537426962062
2025-10-10,13.945258528249294
2025-10-13,13.962347582729732
2025-10-14,13.640383285831717
2025-10-15,14.290357373960948
2025-10-16,14.162327163345402
2025-10-17,14.11542524157964
2025-10-20,14.259716836076056
2025-10-21,14.035754983823125
2025-10-22,13.486788098175612
2025-10-23,13.637635564473932
2025-10-24,14.205847416773338
2025-10-27,14.605205407135795
2025-10-28,14.873500536718034
2025-10-29,15.043145603681387
2025-10-30,14.55211869843307
2025-10-31,14.565269161795973
2025-11-03,14.598120538477419
2025-11-04,13.952412825508418
2025-11-05,14.151429140412853
2025-11-06,13.5184327354441
2025-11-07,13.5184327354441
2025-11-10,13.86064203586115
2025-11-11,13.482399549653248
2025-11-12,13.473343018406952
2025-11-13,12.991710826496046
2025-11-14,13.28837992872999
2025-11-17,12.813867336455207
2025-11-18,12.46932041131262
2025-11-19,12.46932041131262
2025-11-20,12.46932041131262
2025-11-21,12.46932041131262
2025-11-24,12.553821238741063
2025-11-25,12.708760571138487
2025-11-26,12.662663421132091
2025-11-28,12.646815426887185
2025-12-01,12.470277878237912
2025-12-02,12.446188542302737
2025-12-03,12.397517452173075
2025-12-04,12.377378594712534
2025-12-05,12.41394905013697
2025-12-08,12.097843022183579
2025-12-09,12.161105126107191
2025-12-10,12.233891446903353
2025-12-11,11.968087222179363
2025-12-12,11.799791488110188
2025-12-15,11.764833537125106
2025-12-16,11.709407404008696
2025-12-17,11.590838140997729
2025-12-18,11.649505806234647
2025-12-19,11.682148805986364
2025-12-22,11.699439530653027
2025-12-23,11.706339216338169
2025-12-24,11.933256703392868
2025-12-26,11.905742280027134
2025-12-29,12.12431239075994
2025-12-30,12.052849880009354
2025-12-31,11.866257021841871
2026-01-02,12.636153343938894
2026-01-05,12.740094157553973
2026-01-06,13.534800395826984
2026-01-07,13.409751446864238
2026-01-08,13.02548275324417
2026-01-09,13.628010725422232
2026-01-12,13.712535808952424
2026-01-13,13.521753660602492
2026-01-14,13.386923052414218
2026-01-15,13.649334030499752
2026-01-16,14.292399130983707
2026-01-20,14.24164048258567
2026-01-21,14.831744016353639
2026-01-22,14.939073223168478
2026-01-23,15.02325774915355
2026-01-26,14.766482463590862
2026-01-27,15.363790514191336
2026-01-28,15.940308229478681
2026-01-29,16.00261615926678
2026-01-30,15.345673561031656
2026-02-02,15.900100588202235
2026-02-03,15.401465839892495
2026-02-04,14.850776945671624
2026-02-05,14.850776945671624
2026-02-06,14.850776945671624
2026-02-09,14.882558848133538
2026-02-10,14.739309384284756
2026-02-11,15.238994681206186
2026-02-12,15.212304616148945
2026-02-13,15.25851489483789
2026-02-17,15.143465166100052
2026-02-18,15.42304253627875
2026-02-19,15.344161074407856
2026-02-20,15.571759292081397
2026-02-23,15.458579691289133
2026-02-24,15.461811664001532
2026-02-25,15.653780163933748
2026-02-26,15.35394016703814
2026-02-27,15.23885158421771
2026-03-02,15.194925180030056
2026-03-03,14.852940298277737
2026-03-04,14.852940298277737
2026-03-05,14.852940298277737
2026-03-06,14.852940298277737
2026-03-09,15.114746726968352
2026-03-10,15.100491108239595
2026-03-11,15.204815292757337
2026-03-12,14.788060316646417
2026-03-13,14.710205488351486
2026-03-16,14.573720566780292
2026-03-17,14.718837942546253
2026-03-18,14.5249085580091
2026-03-19,14.380932073609273
2026-03-20,14.204713758780313
2026-03-23,14.231513395520173
2026-03-24,14.231513395520173
2026-03-25,14.231513395520173
2026-03-26,14.231513395520173
2026-03-27,14.231513395520173
2026-03-30,14.231513395520173
2026-03-31,14.231513395520173
2026-04-01,14.231513395520173
2026-04-02,14.231513395520173
2026-04-06,14.231513395520173
2026-04-07,14.231513395520173
2026-04-08,14.231513395520173
2026-04-09,14.231513395520173
2026-04-10,14.231513395520173
2026-04-13,14.647644051509022
2026-04-14,14.629379543226818
2026-04-15,14.80085177490705
2026-04-16,15.140908732984393
2026-04-17,15.486924229059024
2026-04-20,15.612703238401211
2026-04-21,15.86676900230379
2026-04-22,16.08251809498379
2026-04-23,16.706452834032643
2026-04-24,18.44155989062937
2026-04-27,18.387962948639004
2026-04-28,17.90325619963777
2026-04-29,19.073957623695968
2026-04-30,19.043059739941654
2026-05-01,19.631271140775773
2026-05-04,18.833927179506514
2026-05-05,20.465661165027985
2026-05-06,22.124197191232142
2026-05-07,20.70825444304991
2026-05-08,21.31267076195796
2026-05-11,21.60098858161974
2026-05-12,21.228809419713745
2026-05-13,21.455828217508795
2026-05-14,21.418895545767786
2026-05-15,21.0965252234848
2026-05-18,20.357829076755834
2026-05-19,20.70152856600048
2026-05-20,20.54352482989286
