Date,Value
2018-01-02,1.0
2018-01-03,1.0
2018-01-04,1.0
2018-01-05,1.0
2018-01-08,1.0243276923826676
2018-01-09,1.02299762261486
2018-01-10,1.0227144092576712
2018-01-11,1.0309463920954007
2018-01-12,1.0410748266118746
2018-01-16,1.0380035739363198
2018-01-17,1.0676603636065272
2018-01-18,1.057172428095476
2018-01-19,1.0643338941241338
2018-01-22,1.0869617927762811
2018-01-23,1.093849946770463
2018-01-24,1.0611631981745457
2018-01-25,1.067959479293417
2018-01-26,1.1011790150080616
2018-01-29,1.1336713421126043
2018-01-30,1.1167631174958406
2018-01-31,1.1017780038982727
2018-02-01,1.0791644983950939
2018-02-02,1.0678318005985932
2018-02-05,1.0341164292451566
2018-02-06,1.0341164292451566
2018-02-07,1.0341164292451566
2018-02-08,1.0341164292451566
2018-02-09,1.0341164292451566
2018-02-12,1.0498025537636948
2018-02-13,1.0461887764689417
2018-02-14,1.0782272596245719
2018-02-15,1.0936765973714135
2018-02-16,1.0910016109271743
2018-02-20,1.1020402962013522
2018-02-21,1.0838775222430659
2018-02-22,1.0835878720368373
2018-02-23,1.0974881019339389
2018-02-26,1.104396019946518
2018-02-27,1.1036705487829526
2018-02-28,1.1056132749095346
2018-03-01,1.101746607817046
2018-03-02,1.1124670470063682
2018-03-05,1.132096273146388
2018-03-06,1.1472300207770214
2018-03-07,1.1476171053154356
2018-03-08,1.1511725647788729
2018-03-09,1.1696477837229962
2018-03-12,1.1571331092594155
2018-03-13,1.1456419529925685
2018-03-14,1.1534056070225212
2018-03-15,1.155366207378724
2018-03-16,1.1522609088187163
2018-03-19,1.1438101795459799
2018-03-20,1.1636366876264959
2018-03-21,1.1548119051142363
2018-03-22,1.1365019315068356
2018-03-23,1.1221366210316222
2018-03-26,1.1203635077811576
2018-03-27,1.1081288273403058
2018-03-28,1.1023426035098833
2018-03-29,1.1023426035098833
2018-04-02,1.0878499590758213
2018-04-03,1.0987527554555152
2018-04-04,1.1074901409779372
2018-04-05,1.1205340169669973
2018-04-06,1.1081365726262398
2018-04-09,1.1031228129415709
2018-04-10,1.1106084957271598
2018-04-11,1.1099624880806147
2018-04-12,1.12394401495821
2018-04-13,1.1146117039829413
2018-04-16,1.1200021511190956
2018-04-17,1.130490445052283
2018-04-18,1.1317365116448155
2018-04-19,1.1236366155435564
2018-04-20,1.1200343694517279
2018-04-23,1.118048105282659
2018-04-24,1.1183828236315847
2018-04-25,1.116906976064989
2018-04-26,1.1306496965644826
2018-04-27,1.127044723286713
2018-04-30,1.1211880468831095
2018-05-01,1.1327704394709297
2018-05-02,1.1312679047395602
2018-05-03,1.1261003874923872
2018-05-04,1.1333610633545363
2018-05-07,1.1411800591762722
2018-05-08,1.147780989891241
2018-05-09,1.1589541407223607
2018-05-10,1.1612833863670735
2018-05-11,1.1541388041706555
2018-05-14,1.1519878388680196
2018-05-15,1.1500098502305833
2018-05-16,1.1501035492354292
2018-05-17,1.1513827487054384
2018-05-18,1.147007374577138
2018-05-21,1.1589847325386942
2018-05-22,1.156052466952678
2018-05-23,1.1642472676443096
2018-05-24,1.1650424292970054
2018-05-25,1.1689567075053644
2018-05-29,1.1661081366518866
2018-05-30,1.1708256139266908
2018-05-31,1.1658321256017619
2018-06-01,1.1775977431324698
2018-06-04,1.1745726589831453
2018-06-05,1.1664862608248125
2018-06-06,1.1678197651206335
2018-06-07,1.1551486795532646
2018-06-08,1.1506980294378089
2018-06-11,1.1675031273155816
2018-06-12,1.1736458406974606
2018-06-13,1.1925298204490156
2018-06-14,1.192619818312423
2018-06-15,1.1937145212317188
2018-06-18,1.2170965682673165
2018-06-19,1.2012277250089958
2018-06-20,1.1948046200695501
2018-06-21,1.1619334190111485
2018-06-22,1.1676008836220528
2018-06-25,1.1105931704356982
2018-06-26,1.1212919536375485
2018-06-27,1.1148339403998615
2018-06-28,1.1184432495966747
2018-06-29,1.1155802022621129
2018-07-02,1.1011342406790057
2018-07-03,1.0832263390544952
2018-07-05,1.0888735456083345
2018-07-06,1.0959486763196835
2018-07-09,1.0996906373278539
2018-07-10,1.0953188007021182
2018-07-11,1.0882685277125679
2018-07-12,1.0941195901524177
2018-07-13,1.071872309056272
2018-07-16,1.0854353848303782
2018-07-17,1.0764510005170962
2018-07-18,1.0757926029536566
2018-07-19,1.0711838827978264
2018-07-20,1.0642708967464523
2018-07-23,1.054886248955168
2018-07-24,1.025069235950678
2018-07-25,1.037175465312
2018-07-26,1.1111329838468031
2018-07-27,1.117785537380188
2018-07-30,1.117805759298453
2018-07-31,1.0814499278334062
2018-08-01,1.0908906625940304
2018-08-02,1.0894266934155978
2018-08-03,1.0795509183287453
2018-08-06,1.1057741842762745
2018-08-07,1.111690938376102
2018-08-08,1.0866773803016794
2018-08-09,1.0708762155086122
2018-08-10,1.069559420381733
2018-08-13,1.0860021193531617
2018-08-14,1.1040723404367112
2018-08-15,1.0897961348860725
2018-08-16,1.0803186469677228
2018-08-17,1.099515342192594
2018-08-20,1.1081607770144202
2018-08-21,1.1219174991509584
2018-08-22,1.1484945559824895
2018-08-23,1.2067258343248994
2018-08-24,1.2760801274071982
2018-08-27,1.3223051833642245
2018-08-28,1.3225991277541014
2018-08-29,1.3278835575937982
2018-08-30,1.3057593277252915
2018-08-31,1.3272424192806445
2018-09-04,1.4340900402157173
2018-09-05,1.4377466971405486
2018-09-06,1.4614968307916683
2018-09-07,1.4552934427737438
2018-09-10,1.5612045690424874
2018-09-11,1.5783043722414503
2018-09-12,1.6281524027896883
2018-09-13,1.5660742456783139
2018-09-14,1.6452876847481686
2018-09-17,1.6328999199519671
2018-09-18,1.6301613222501632
2018-09-19,1.602578843944947
2018-09-20,1.5959088805357573
2018-09-21,1.5845436249659937
2018-09-24,1.6434683224624074
2018-09-25,1.6543479814831514
2018-09-26,1.6372649887991262
2018-09-27,1.6297819291784175
2018-09-28,1.5819965523623356
2018-10-01,1.5808025453754906
2018-10-02,1.4744482037212583
2018-10-03,1.440699485520661
2018-10-04,1.440699485520661
2018-10-05,1.440699485520661
2018-10-08,1.4402215972020005
2018-10-09,1.44502068365995
2018-10-10,1.4181221311268273
2018-10-11,1.4181221311268273
2018-10-12,1.4181221311268273
2018-10-15,1.420512090035631
2018-10-16,1.4271788092192743
2018-10-17,1.4352921168691812
2018-10-18,1.4323989399366535
2018-10-19,1.4325247104702084
2018-10-22,1.4332975159898818
2018-10-23,1.4351625916468784
2018-10-24,1.4295615215280206
2018-10-25,1.4411892251753486
2018-10-26,1.4347077041367278
2018-10-29,1.4406438829166819
2018-10-30,1.4406438829166819
2018-10-31,1.4406438829166819
2018-11-01,1.4406438829166819
2018-11-02,1.4406438829166819
2018-11-05,1.4406438829166819
2018-11-06,1.4406438829166819
2018-11-07,1.4406438829166819
2018-11-08,1.4406438829166819
2018-11-09,1.4406438829166819
2018-11-12,1.4406438829166819
2018-11-13,1.4406438829166819
2018-11-14,1.4406438829166819
2018-11-15,1.4406438829166819
2018-11-16,1.4406438829166819
2018-11-19,1.4406438829166819
2018-11-20,1.4406438829166819
2018-11-21,1.4406438829166819
2018-11-23,1.4406438829166819
2018-11-26,1.4406438829166819
2018-11-27,1.4406438829166819
2018-11-28,1.4406438829166819
2018-11-29,1.4406438829166819
2018-11-30,1.4406438829166819
2018-12-03,1.4406438829166819
2018-12-04,1.4406438829166819
2018-12-06,1.4406438829166819
2018-12-07,1.4406438829166819
2018-12-10,1.4406438829166819
2018-12-11,1.4406438829166819
2018-12-12,1.4406438829166819
2018-12-13,1.4406438829166819
2018-12-14,1.4406438829166819
2018-12-17,1.4406438829166819
2018-12-18,1.4406438829166819
2018-12-19,1.4406438829166819
2018-12-20,1.4406438829166819
2018-12-21,1.4406438829166819
2018-12-24,1.4406438829166819
2018-12-26,1.4406438829166819
2018-12-27,1.4406438829166819
2018-12-28,1.4406438829166819
2018-12-31,1.4406438829166819
2019-01-02,1.4406438829166819
2019-01-03,1.4406438829166819
2019-01-04,1.4406438829166819
2019-01-07,1.4406438829166819
2019-01-08,1.4406438829166819
2019-01-09,1.4406438829166819
2019-01-10,1.4406438829166819
2019-01-11,1.4406438829166819
2019-01-14,1.4406438829166819
2019-01-15,1.4406438829166819
2019-01-16,1.4406438829166819
2019-01-17,1.4406438829166819
2019-01-18,1.4406438829166819
2019-01-22,1.4406438829166819
2019-01-23,1.4406438829166819
2019-01-24,1.4406438829166819
2019-01-25,1.4406438829166819
2019-01-28,1.4406438829166819
2019-01-29,1.4406438829166819
2019-01-30,1.4406438829166819
2019-01-31,1.4406438829166819
2019-02-01,1.4406438829166819
2019-02-04,1.4406438829166819
2019-02-05,1.4406438829166819
2019-02-06,1.4406438829166819
2019-02-07,1.4406438829166819
2019-02-08,1.4406438829166819
2019-02-11,1.4406438829166819
2019-02-12,1.4406438829166819
2019-02-13,1.4406438829166819
2019-02-14,1.4406438829166819
2019-02-15,1.4406438829166819
2019-02-19,1.4354095114275438
2019-02-20,1.4463453495513015
2019-02-21,1.4516469558860479
2019-02-22,1.4754803142689756
2019-02-25,1.48926173327514
2019-02-26,1.4107162949922083
2019-02-27,1.4053020261763116
2019-02-28,1.4008830825284178
2019-03-01,1.4035103575133387
2019-03-04,1.3777797535025762
2019-03-05,1.3551664985841394
2019-03-06,1.3535796532793767
2019-03-07,1.3640875036575397
2019-03-08,1.3797915534641685
2019-03-11,1.4121233973932346
2019-03-12,1.4157030112325453
2019-03-13,1.4289821826554412
2019-03-14,1.4536929487723085
2019-03-15,1.4565797213382725
2019-03-18,1.4867371732590424
2019-03-19,1.4980246616551307
2019-03-20,1.5187433794743361
2019-03-21,1.602930185378074
2019-03-22,1.5481092750807515
2019-03-25,1.5598909718790068
2019-03-26,1.5933685136418023
2019-03-27,1.5573926128559918
2019-03-28,1.5724552829654455
2019-03-29,1.5753911062315686
2019-04-01,1.5779815514508604
2019-04-02,1.5632247428013961
2019-04-03,1.5550248043276467
2019-04-04,1.4389258416290351
2019-04-05,1.4168556333173328
2019-04-08,1.3971859045145902
2019-04-09,1.3654285550252796
2019-04-10,1.379953227697175
2019-04-11,1.3789685287976106
2019-04-12,1.3804456006245909
2019-04-15,1.3768627050428277
2019-04-16,1.3595375087027208
2019-04-17,1.3199880041271865
2019-04-18,1.3018698425146153
2019-04-22,1.330811026936149
2019-04-23,1.362558705692234
2019-04-24,1.3754762951644217
2019-04-25,1.342102951702456
2019-04-26,1.3597212905980371
2019-04-29,1.3597844404728372
2019-04-30,1.3496028365237425
2019-05-01,1.3312814375518531
2019-05-02,1.3737005651263363
2019-05-03,1.3886870989112126
2019-05-06,1.3609098103340829
2019-05-07,1.3184954859410474
2019-05-08,1.3239516744009978
2019-05-09,1.3209991157813024
2019-05-10,1.355472756849089
2019-05-13,1.2979741870045318
2019-05-14,1.3153837163078872
2019-05-15,1.3163941937116466
2019-05-16,1.289580349226504
2019-05-17,1.2773006813938224
2019-05-20,1.269991811389625
2019-05-21,1.2743744995232096
2019-05-22,1.280871514710338
2019-05-23,1.2621036283926261
2019-05-24,1.2683814910095377
2019-05-28,1.278137899910448
2019-05-29,1.2538926081205313
2019-05-30,1.266631986969161
2019-05-31,1.2447406951535895
2019-06-03,1.2440075081715247
2019-06-04,1.2440075081715247
2019-06-05,1.2440075081715247
2019-06-06,1.2440075081715247
2019-06-07,1.2440075081715247
2019-06-10,1.2394815284801723
2019-06-11,1.2057530818190396
2019-06-12,1.224533541215385
2019-06-13,1.220506662283399
2019-06-14,1.2121023495478362
2019-06-17,1.2110276100363988
2019-06-18,1.212746894522199
2019-06-19,1.2862622923798712
2019-06-20,1.2872792737600052
2019-06-21,1.270971837590425
2019-06-24,1.2242508326141917
2019-06-25,1.1753282029328012
2019-06-26,1.1562355505155106
2019-06-27,1.1562355505155106
2019-06-28,1.1562355505155106
2019-07-01,1.1381625289619821
2019-07-02,1.1525279421889216
2019-07-03,1.1541851975527093
2019-07-05,1.1605533004788349
2019-07-08,1.1840115096156936
2019-07-09,1.2060334032957196
2019-07-10,1.2121082059479709
2019-07-11,1.1913206414345416
2019-07-12,1.1847191287988252
2019-07-15,1.2324050323279552
2019-07-16,1.2101644790797748
2019-07-17,1.220473836185257
2019-07-18,1.2204842213070215
2019-07-19,1.2094188935593126
2019-07-22,1.2254183285550577
2019-07-23,1.2276528929926398
2019-07-24,1.2377102415972245
2019-07-25,1.2367711001095478
2019-07-26,1.2491308091325264
2019-07-29,1.2077820484614894
2019-07-30,1.2047395265039844
2019-07-31,1.1680736805970526
2019-08-01,1.2121162848003697
2019-08-02,1.1948814408550503
2019-08-05,1.1721624879354606
2019-08-06,1.1983286424064752
2019-08-07,1.2152540302772452
2019-08-08,1.2493999927669028
2019-08-09,1.2722349849606842
2019-08-12,1.2619194288492352
2019-08-13,1.2719031782989185
2019-08-14,1.235854366166768
2019-08-15,1.2344932924554481
2019-08-16,1.2519125978846959
2019-08-19,1.258132743187246
2019-08-20,1.279574688519547
2019-08-21,1.3095390011882917
2019-08-22,1.3076462021200006
2019-08-23,1.2912835599667487
2019-08-26,1.321577391774615
2019-08-27,1.3409770338117963
2019-08-28,1.321160726341672
2019-08-29,1.3173134881230262
2019-08-30,1.3019609239069065
2019-09-03,1.2998353942985699
2019-09-04,1.3026347848654218
2019-09-05,1.3126109793406435
2019-09-06,1.2901233861097894
2019-09-09,1.2478229896013069
2019-09-10,1.2439171603816161
2019-09-11,1.2439171603816161
2019-09-12,1.2439171603816161
2019-09-13,1.2439171603816161
2019-09-16,1.261862414407279
2019-09-17,1.2764219109340016
2019-09-18,1.2943948849504285
2019-09-19,1.2829297936584276
2019-09-20,1.2674505574572084
2019-09-23,1.281672378926259
2019-09-24,1.2634694447176766
2019-09-25,1.292624401120356
2019-09-26,1.2873858751082619
2019-09-27,1.2465705214182712
2019-09-30,1.252504411997783
2019-10-01,1.2466743422345232
2019-10-02,1.2298754014404403
2019-10-03,1.2392898826858503
2019-10-04,1.2623845410208372
2019-10-07,1.2605954725446251
2019-10-08,1.227251255710676
2019-10-09,1.24701705302254
2019-10-10,1.2487103208114894
2019-10-11,1.2638624563271879
2019-10-14,1.2576591436301983
2019-10-15,1.2803963642625662
2019-10-16,1.2582663509265894
2019-10-17,1.2679083914757048
2019-10-18,1.257032718120614
2019-10-21,1.281531304193105
2019-10-22,1.2717658731692127
2019-10-23,1.2522694661396632
2019-10-24,1.338286897150569
2019-10-25,1.3493606473760154
2019-10-28,1.3848397750786732
2019-10-29,1.3595469303983125
2019-10-30,1.3722082762576995
2019-10-31,1.3469452292593576
2019-11-01,1.3709033013097767
2019-11-04,1.3773751072043379
2019-11-05,1.36864177110549
2019-11-06,1.3675786186957413
2019-11-07,1.3632899662494227
2019-11-08,1.3707926617477373
2019-11-11,1.369779817290322
2019-11-12,1.368036770050197
2019-11-13,1.379440629162303
2019-11-14,1.3840654069061915
2019-11-15,1.4046209413253616
2019-11-18,1.3996741456571054
2019-11-19,1.3873464619250249
2019-11-20,1.3740202231418097
2019-11-21,1.3345636671640992
2019-11-22,1.332954283649587
2019-11-25,1.3224010829779065
2019-11-26,1.2945404164840424
2019-11-27,1.3062144556790303
2019-11-29,1.2992144368602128
2019-12-02,1.301670482314712
2019-12-03,1.307113297556405
2019-12-04,1.3143068088503571
2019-12-05,1.3079769723734767
2019-12-06,1.3188304318962016
2019-12-09,1.314065068211399
2019-12-10,1.3406909817521702
2019-12-11,1.3486687109789224
2019-12-12,1.4148226867081777
2019-12-13,1.3880288976223705
2019-12-16,1.4530086738874481
2019-12-17,1.4552369084541135
2019-12-18,1.4747151686090962
2019-12-19,1.504736911023444
2019-12-20,1.53000926093201
2019-12-23,1.5784953151418841
2019-12-24,1.6083898916340118
2019-12-26,1.620922206260637
2019-12-27,1.6122454291447204
2019-12-30,1.5707586724182052
2019-12-31,1.583521749538137
2020-01-02,1.6612818291018363
2020-01-03,1.6775247415079837
2020-01-06,1.6904924042587117
2020-01-07,1.722042486120357
2020-01-08,1.759630363824936
2020-01-09,1.7579605181000277
2020-01-10,1.7382875582806783
2020-01-13,1.8384872075258345
2020-01-14,1.8546552213540093
2020-01-15,1.8228020071201558
2020-01-16,1.8336893806023817
2020-01-17,1.8474743327488747
2020-01-21,1.9205367882671336
2020-01-22,1.9702293141923208
2020-01-23,1.9800637215644112
2020-01-24,1.9428316617490227
2020-01-27,1.8908618136578719
2020-01-28,1.9080502072975878
2020-01-29,1.9353233209734106
2020-01-30,2.0511129681208358
2020-01-31,2.070004706107027
2020-02-03,2.322507462109541
2020-02-04,2.557560363771007
2020-02-05,2.3730887073251306
2020-02-06,2.3686216400417877
2020-02-07,2.3785080638177534
2020-02-10,2.4370778274029874
2020-02-11,2.4405248219387436
2020-02-12,2.498320485197242
2020-02-13,2.5299058241383054
2020-02-14,2.5311064715975498
2020-02-18,2.5753479120718916
2020-02-19,2.6135127392553787
2020-02-20,2.561020905425951
2020-02-21,2.4252624750216754
2020-02-24,2.443467469496368
2020-02-25,2.3874478540125157
2020-02-26,2.4059518628541325
2020-02-27,2.3312460411126907
2020-02-28,2.370472810637245
2020-03-02,2.4112250765572254
2020-03-03,2.3832698004939217
2020-03-04,2.46787587125401
2020-03-05,2.4355654664108988
2020-03-06,2.4276768984554553
2020-03-09,2.3321368142776975
2020-03-10,2.3321368142776975
2020-03-11,2.3321368142776975
2020-03-12,2.3321368142776975
2020-03-13,2.3321368142776975
2020-03-16,2.3321368142776975
2020-03-17,2.3321368142776975
2020-03-18,2.3321368142776975
2020-03-19,2.3321368142776975
2020-03-20,2.3321368142776975
2020-03-23,2.3321368142776975
2020-03-24,2.3321368142776975
2020-03-25,2.3321368142776975
2020-03-26,2.3321368142776975
2020-03-27,2.3321368142776975
2020-03-30,2.3321368142776975
2020-03-31,2.3321368142776975
2020-04-01,2.3321368142776975
2020-04-02,2.3321368142776975
2020-04-03,2.3321368142776975
2020-04-06,2.3321368142776975
2020-04-07,2.3321368142776975
2020-04-08,2.3321368142776975
2020-04-09,2.3321368142776975
2020-04-13,2.314098086338088
2020-04-14,2.4352351187977104
2020-04-15,2.5173274129151877
2020-04-16,2.5575670027271045
2020-04-17,2.5403276408625732
2020-04-20,2.6602384044566745
2020-04-21,2.515694977466368
2020-04-22,2.587419655341444
2020-04-23,2.5921021456092492
2020-04-24,2.6771787950543224
2020-04-27,2.7634505973488324
2020-04-28,2.6253738702121785
2020-04-29,2.60664536759794
2020-04-30,2.582273689599932
2020-05-01,2.609245805838609
2020-05-04,2.7347112676959093
2020-05-05,2.736885190227934
2020-05-06,2.7778384351403536
2020-05-07,2.8817851050422916
2020-05-08,2.8904450792530327
2020-05-11,2.934553974792859
2020-05-12,2.9236548732034584
2020-05-13,2.908599008646407
2020-05-14,2.9284384306788738
2020-05-15,2.9424654378514683
2020-05-18,2.874556785893978
2020-05-19,2.9498634911206394
2020-05-20,3.0316715365750477
2020-05-21,2.9981824937963837
2020-05-22,3.0546163735395226
2020-05-26,2.989264802988969
2020-05-27,2.9256707619643385
2020-05-28,2.9791644248363633
2020-05-29,3.552290012283633
2020-06-01,3.9102254437198187
2020-06-02,3.7887477743139337
2020-06-03,3.9289489609008994
2020-06-04,3.8069012399324422
2020-06-05,3.69755511698001
2020-06-08,3.7901962775544344
2020-06-09,3.774920619977999
2020-06-10,3.88047021683144
2020-06-11,3.781262511182633
2020-06-12,3.7388361153827603
2020-06-15,3.894798005063839
2020-06-16,3.9042584337446806
2020-06-17,3.918403834479495
2020-06-18,4.102259957233095
2020-06-19,4.009992434040461
2020-06-22,4.109243204152398
2020-06-23,4.10582358423672
2020-06-24,4.057019243672696
2020-06-25,4.158456416222574
2020-06-26,3.9171352060805242
2020-06-29,3.8921505999292947
2020-06-30,4.011051549125185
2020-07-01,4.101145931408544
2020-07-02,4.164315797976321
2020-07-06,4.229875336613751
2020-07-07,4.213354452887681
2020-07-08,4.504506185926957
2020-07-09,4.682514002656367
2020-07-10,4.631252611712071
2020-07-13,4.319709652039582
2020-07-14,4.247546959417317
2020-07-15,4.200364930049659
2020-07-16,4.151361370278195
2020-07-17,4.2089269290574425
2020-07-20,4.506387187620021
2020-07-21,4.368463317193099
2020-07-22,4.393737312935121
2020-07-23,4.258422032636368
2020-07-24,4.056621242561448
2020-07-27,4.234780609049141
2020-07-28,4.169311634433271
2020-07-29,4.303193758267286
2020-07-30,4.383158211272882
2020-07-31,4.4247074877417045
2020-08-03,4.56233006365977
2020-08-04,4.5630893835265445
2020-08-05,4.6945873068148956
2020-08-06,4.643546682612062
2020-08-07,4.47882261942282
2020-08-10,4.2269594517557545
2020-08-11,4.182464887548181
2020-08-12,4.203759988749532
2020-08-13,4.286907956713188
2020-08-14,4.285790820527653
2020-08-17,4.5510421433592665
2020-08-18,4.6515848432095765
2020-08-19,4.64755139574622
2020-08-20,4.816849032615496
2020-08-21,4.849444929398098
2020-08-24,4.82138799329538
2020-08-25,4.854951433334293
2020-08-26,5.007159540409994
2020-08-27,5.0906255860765395
2020-08-28,5.016822327736303
2020-08-31,5.311855336693712
2020-09-01,5.162208447694829
2020-09-02,4.757009497378647
2020-09-03,4.757009497378647
2020-09-04,4.757009497378647
2020-09-08,4.778560313001032
2020-09-09,4.905122557210479
2020-09-10,4.851253056783218
2020-09-11,4.813095529288689
2020-09-14,4.902323491353077
2020-09-15,4.939273259576517
2020-09-16,4.885642723962394
2020-09-17,4.850467107349894
2020-09-18,4.814021756940446
2020-09-21,4.858485100473745
2020-09-22,4.884193074420444
2020-09-23,4.773817517299086
2020-09-24,4.804256063605382
2020-09-25,4.883195745704432
2020-09-28,4.918965942841135
2020-09-29,4.9421536684796505
2020-09-30,4.992170169844319
2020-10-01,5.011212662478073
2020-10-02,4.927560744727805
2020-10-05,5.004559164843529
2020-10-06,5.00721437328164
2020-10-07,5.078914601663165
2020-10-08,5.067407448029584
2020-10-09,5.088178836339136
2020-10-12,5.140516476880527
2020-10-13,5.141584948946953
2020-10-14,5.101361515713943
2020-10-15,5.068350330131098
2020-10-16,5.0563898214656415
2020-10-19,5.00709257245148
2020-10-20,5.026812563790304
2020-10-21,5.005973219119724
2020-10-22,4.952709501376277
2020-10-23,4.9759433013907595
2020-10-26,4.907734384141753
2020-10-27,4.904915111920707
2020-10-28,4.862818488918058
2020-10-29,4.910067788006386
2020-10-30,4.880123802192668
2020-11-02,4.9015465459342025
2020-11-03,4.954434830898538
2020-11-04,4.974084984129332
2020-11-05,5.119573278468238
2020-11-06,5.142680362898124
2020-11-09,5.14741773135036
2020-11-10,5.132162231579709
2020-11-11,5.211990986140503
2020-11-12,5.156528303310774
2020-11-13,5.176803873587929
2020-11-16,5.2651343125994625
2020-11-17,5.255023343669356
2020-11-18,5.215661856113094
2020-11-19,5.223932986256832
2020-11-20,5.19125061039318
2020-11-23,5.175823364668695
2020-11-24,5.220955954118253
2020-11-25,5.193843416024659
2020-11-27,5.200386101385835
2020-11-30,5.22235044717084
2020-12-01,5.2681730580570125
2020-12-02,5.23832287929287
2020-12-03,5.241551255474551
2020-12-04,5.337538043738693
2020-12-07,5.339756844716256
2020-12-08,5.347065871049811
2020-12-09,5.314629574499911
2020-12-10,5.3049781219489125
2020-12-11,5.230944863874196
2020-12-14,5.212045760434713
2020-12-15,5.194425175781152
2020-12-16,5.206944736730596
2020-12-17,5.494431472482612
2020-12-18,5.539796979088095
2020-12-21,5.575356211695189
2020-12-22,5.663601790032876
2020-12-23,5.503602584641186
2020-12-24,5.531434158164261
2020-12-28,5.414153532112493
2020-12-29,5.406696725960957
2020-12-30,5.408073972307243
2020-12-31,5.380124242524664
2021-01-04,5.269891230110382
2021-01-05,5.30924044884271
2021-01-06,5.18342577847741
2021-01-07,5.18342577847741
2021-01-08,5.18342577847741
2021-01-11,5.166381624092752
2021-01-12,5.298735124619469
2021-01-13,5.230812065261022
2021-01-14,5.192829175699872
2021-01-15,5.0645398170739755
2021-01-19,5.148579675396104
2021-01-20,5.217686235658065
2021-01-21,5.139261050817531
2021-01-22,5.173497914035774
2021-01-25,5.207850897471284
2021-01-26,5.090959773946177
2021-01-27,4.984619028079055
2021-01-28,4.896957033139234
2021-01-29,4.76911079245728
2021-02-01,4.893517005806578
2021-02-02,5.0443432858886155
2021-02-03,4.97263676715896
2021-02-04,5.022153237660551
2021-02-05,5.023784100743434
2021-02-08,5.04524271807081
2021-02-09,5.017392081991125
2021-02-10,4.9639074266897705
2021-02-11,5.022181508180179
2021-02-12,5.114934110276678
2021-02-16,5.057683940559936
2021-02-17,4.962232596391253
2021-02-18,4.969713368356421
2021-02-19,4.969171252263324
2021-02-22,4.778006147550671
2021-02-23,4.602234545393377
2021-02-24,4.602234545393377
2021-02-25,4.602234545393377
2021-02-26,4.602234545393377
2021-03-01,4.6150712217721885
2021-03-02,4.525307666545955
2021-03-03,4.481651916665182
2021-03-04,4.362324065294638
2021-03-05,4.347117444929809
2021-03-08,4.235327919576918
2021-03-09,4.369755522259577
2021-03-10,4.3071870327534985
2021-03-11,4.398492852554465
2021-03-12,4.351656108365058
2021-03-15,4.370592832082931
2021-03-16,4.437127281492343
2021-03-17,4.491475630376267
2021-03-18,4.37671428209547
2021-03-19,4.390768751427322
2021-03-22,4.443283637327764
2021-03-23,4.342712120622524
2021-03-24,4.388187381198881
2021-03-25,4.374891741517381
2021-03-26,4.4608319090514685
2021-03-29,4.449617811688368
2021-03-30,4.434384914933724
2021-03-31,4.5082724427309335
2021-04-01,4.603676489366441
2021-04-05,4.687518463750924
2021-04-06,4.619670711762862
2021-04-07,4.6397773653944405
2021-04-08,4.669579874537094
2021-04-09,4.707357366524123
2021-04-12,4.5707220321304
2021-04-13,4.565087294881729
2021-04-14,4.520072596712028
2021-04-15,4.551494470302774
2021-04-16,4.535567834490179
2021-04-19,4.451442308456722
2021-04-20,4.430781094357985
2021-04-21,4.430781094357985
2021-04-22,4.430781094357985
2021-04-23,4.430781094357985
2021-04-26,4.470087295890865
2021-04-27,4.449883990052581
2021-04-28,4.450921052579989
2021-04-29,4.43174952831849
2021-04-30,4.392265811177847
2021-05-03,4.401085991722617
2021-05-04,4.2857703533518094
2021-05-05,4.284489413934953
2021-05-06,4.318531145114587
2021-05-07,4.375983899917594
2021-05-10,4.188913708076081
2021-05-11,4.19392510999021
2021-05-12,4.123795187560256
2021-05-13,4.123795187560256
2021-05-14,4.123795187560256
2021-05-17,4.125606081564326
2021-05-18,4.0976966463568125
2021-05-19,4.10304799704472
2021-05-20,4.126581645191553
2021-05-21,4.120257117627192
2021-05-24,4.1570875859165515
2021-05-25,4.1674092464383605
2021-05-26,4.161932814359572
2021-05-27,4.182114311657536
2021-05-28,4.16828256020121
2021-06-01,4.175260999187875
2021-06-02,4.170807337164831
2021-06-03,4.155241088769949
2021-06-04,4.1746847723664535
2021-06-07,4.16682143642299
2021-06-08,4.16043595757264
2021-06-09,4.143977964220221
2021-06-10,4.15124417540416
2021-06-11,4.147298733265147
2021-06-14,4.178479284438529
2021-06-15,4.151735430438654
2021-06-16,4.135612329792196
2021-06-17,4.251605652277405
2021-06-18,4.226938901055741
2021-06-21,4.211080939491252
2021-06-22,4.2864824130004795
2021-06-23,4.311366371056426
2021-06-24,4.337060161937284
2021-06-25,4.310889975952469
2021-06-28,4.46834625108969
2021-06-29,4.460853511156307
2021-06-30,4.444300481472297
2021-07-01,4.490537292161218
2021-07-02,4.523420211023987
2021-07-06,4.541612732791972
2021-07-07,4.496224323533388
2021-07-08,4.425969656512606
2021-07-09,4.458743222101775
2021-07-12,4.5213117488346
2021-07-13,4.487378366903068
2021-07-14,4.42538218696456
2021-07-15,4.3456282366785
2021-07-16,4.334778017974013
2021-07-19,4.320805612442616
2021-07-20,4.357480455645266
2021-07-21,4.385267584366865
2021-07-22,4.416438093969152
2021-07-23,4.4930200891890895
2021-07-26,4.503706018604706
2021-07-27,4.47455078796099
2021-07-28,4.4929481819751
2021-07-29,4.448980838518047
2021-07-30,4.452001867600552
2021-08-02,4.432369450626587
2021-08-03,4.4358194184175606
2021-08-04,4.473810346539667
2021-08-05,4.491351524384927
2021-08-06,4.4850675962817075
2021-08-09,4.480857042436472
2021-08-10,4.468229533545392
2021-08-11,4.4689320615603805
2021-08-12,4.487937717609226
2021-08-13,4.497956688586166
2021-08-16,4.513836279265245
2021-08-17,4.471831801793504
2021-08-18,4.455728328523043
2021-08-19,4.476442022893622
2021-08-20,4.480471764530112
2021-08-23,4.520531893957113
2021-08-24,4.574868044558839
2021-08-25,4.580881166677403
2021-08-26,4.488829226635977
2021-08-27,4.549438306668126
2021-08-30,4.600571183618689
2021-08-31,4.621984827597417
2021-09-01,4.573978114796867
2021-09-02,4.641207419412564
2021-09-03,4.700086664663212
2021-09-07,4.651561194980313
2021-09-08,4.671149270068128
2021-09-09,4.690343429557975
2021-09-10,4.548261277953841
2021-09-13,4.4939659935282545
2021-09-14,4.543446371071968
2021-09-15,4.560396494226861
2021-09-16,4.646516318174058
2021-09-17,4.629223958288335
2021-09-20,4.607843109596024
2021-09-21,4.659975650640754
2021-09-22,4.767621812170561
2021-09-23,4.755064895958017
2021-09-24,4.738059939845652
2021-09-27,4.5891538650063035
2021-09-28,4.465365095073054
2021-09-29,4.46628565238895
2021-09-30,4.551358145713962
2021-10-01,4.615481543038123
2021-10-04,4.4357441049281885
2021-10-05,4.517754736860722
2021-10-06,4.542066868469629
2021-10-07,4.521350312529728
2021-10-08,4.490874523523533
2021-10-11,4.536432347103924
2021-10-12,4.6109083629775185
2021-10-13,4.785554702412753
2021-10-14,4.738810328419316
2021-10-15,4.769040961952395
2021-10-18,4.835993771160091
2021-10-19,4.838813339470811
2021-10-20,4.853099814968066
2021-10-21,4.879642216107942
2021-10-22,4.896025605319283
2021-10-25,4.867720270721707
2021-10-26,4.881458354356661
2021-10-27,4.77970005619334
2021-10-28,4.859197308597702
2021-10-29,4.987069871877791
2021-11-01,4.95362480356876
2021-11-02,4.948486663009196
2021-11-03,4.891138132955397
2021-11-04,4.950717411417358
2021-11-05,5.268374139912748
2021-11-08,5.421752778860933
2021-11-09,5.499649672796927
2021-11-10,5.336983847907586
2021-11-11,5.38307675593111
2021-11-12,5.445703948959987
2021-11-15,5.41748539320225
2021-11-16,5.472250913617717
2021-11-17,5.395054570783373
2021-11-18,5.415018154962131
2021-11-19,5.47275512375899
2021-11-22,5.291705702237124
2021-11-23,5.107821440393551
2021-11-24,5.145730444016458
2021-11-26,5.108320843303536
2021-11-29,5.220781412147545
2021-11-30,5.1535719090319025
2021-12-01,4.960310460078382
2021-12-02,5.002057094268438
2021-12-03,4.860778508465659
2021-12-06,4.739945083403354
2021-12-07,4.739945083403354
2021-12-08,4.739945083403354
2021-12-09,4.739945083403354
2021-12-10,4.739945083403354
2021-12-13,4.61829736720035
2021-12-14,4.55861785858875
2021-12-15,4.73349777189023
2021-12-16,4.535140827496118
2021-12-17,4.6001799462490185
2021-12-20,4.641532301110517
2021-12-21,4.717949913286597
2021-12-22,4.804388535315739
2021-12-23,4.824340499467025
2021-12-27,4.942942962417927
2021-12-28,4.848354776593494
2021-12-29,4.876510338179721
2021-12-30,4.819034163470766
2021-12-31,4.821599939285971
2022-01-03,4.865144122879457
2022-01-04,4.865647018632551
2022-01-05,4.647995564104007
2022-01-06,4.664515148096864
2022-01-07,4.554892938387351
2022-01-10,4.4986538363942925
2022-01-11,4.502355154978998
2022-01-12,4.513220586489521
2022-01-13,4.519310035889699
2022-01-14,4.5400854975069045
2022-01-18,4.443874095566506
2022-01-19,4.409606547379711
2022-01-20,4.3844185179410715
2022-01-21,4.3844185179410715
2022-01-24,4.3844185179410715
2022-01-25,4.3844185179410715
2022-01-26,4.3844185179410715
2022-01-27,4.3844185179410715
2022-01-28,4.3844185179410715
2022-01-31,4.3844185179410715
2022-02-01,4.3844185179410715
2022-02-02,4.3844185179410715
2022-02-03,4.3844185179410715
2022-02-04,4.3844185179410715
2022-02-07,4.3844185179410715
2022-02-08,4.3844185179410715
2022-02-09,4.3844185179410715
2022-02-10,4.3844185179410715
2022-02-11,4.3844185179410715
2022-02-14,4.3844185179410715
2022-02-15,4.3844185179410715
2022-02-16,4.3844185179410715
2022-02-17,4.3844185179410715
2022-02-18,4.3844185179410715
2022-02-22,4.3844185179410715
2022-02-23,4.3844185179410715
2022-02-24,4.3844185179410715
2022-02-25,4.3844185179410715
2022-02-28,4.3844185179410715
2022-03-01,4.3844185179410715
2022-03-02,4.3844185179410715
2022-03-03,4.3844185179410715
2022-03-04,4.3844185179410715
2022-03-07,4.3844185179410715
2022-03-08,4.3844185179410715
2022-03-09,4.3844185179410715
2022-03-10,4.3844185179410715
2022-03-11,4.3844185179410715
2022-03-14,4.3844185179410715
2022-03-15,4.3844185179410715
2022-03-16,4.3844185179410715
2022-03-17,4.3844185179410715
2022-03-18,4.3844185179410715
2022-03-21,4.3844185179410715
2022-03-22,4.3844185179410715
2022-03-23,4.3844185179410715
2022-03-24,4.3844185179410715
2022-03-25,4.3844185179410715
2022-03-28,4.3844185179410715
2022-03-29,4.3844185179410715
2022-03-30,4.3844185179410715
2022-03-31,4.3844185179410715
2022-04-01,4.3844185179410715
2022-04-04,4.3844185179410715
2022-04-05,4.3844185179410715
2022-04-06,4.3844185179410715
2022-04-07,4.3844185179410715
2022-04-08,4.3844185179410715
2022-04-11,4.3844185179410715
2022-04-12,4.3844185179410715
2022-04-13,4.3844185179410715
2022-04-14,4.3844185179410715
2022-04-18,4.3844185179410715
2022-04-19,4.3844185179410715
2022-04-20,4.3844185179410715
2022-04-21,4.3844185179410715
2022-04-22,4.3844185179410715
2022-04-25,4.3844185179410715
2022-04-26,4.3844185179410715
2022-04-27,4.3844185179410715
2022-04-28,4.3844185179410715
2022-04-29,4.3844185179410715
2022-05-02,4.3844185179410715
2022-05-03,4.3844185179410715
2022-05-04,4.3844185179410715
2022-05-05,4.3844185179410715
2022-05-06,4.3844185179410715
2022-05-09,4.3844185179410715
2022-05-10,4.3844185179410715
2022-05-11,4.3844185179410715
2022-05-12,4.3844185179410715
2022-05-13,4.3844185179410715
2022-05-16,4.3844185179410715
2022-05-17,4.3844185179410715
2022-05-18,4.3844185179410715
2022-05-19,4.3844185179410715
2022-05-20,4.3844185179410715
2022-05-23,4.3844185179410715
2022-05-24,4.3844185179410715
2022-05-25,4.3844185179410715
2022-05-26,4.3844185179410715
2022-05-27,4.3844185179410715
2022-05-31,4.3844185179410715
2022-06-01,4.3844185179410715
2022-06-02,4.3844185179410715
2022-06-03,4.3844185179410715
2022-06-06,4.3844185179410715
2022-06-07,4.3844185179410715
2022-06-08,4.3844185179410715
2022-06-09,4.3844185179410715
2022-06-10,4.3844185179410715
2022-06-13,4.3844185179410715
2022-06-14,4.3844185179410715
2022-06-15,4.3844185179410715
2022-06-16,4.3844185179410715
2022-06-17,4.3844185179410715
2022-06-21,4.3844185179410715
2022-06-22,4.3844185179410715
2022-06-23,4.3844185179410715
2022-06-24,4.3844185179410715
2022-06-27,4.3844185179410715
2022-06-28,4.3844185179410715
2022-06-29,4.3844185179410715
2022-06-30,4.3844185179410715
2022-07-01,4.3844185179410715
2022-07-05,4.3844185179410715
2022-07-06,4.3844185179410715
2022-07-07,4.3844185179410715
2022-07-08,4.3844185179410715
2022-07-11,4.3844185179410715
2022-07-12,4.3844185179410715
2022-07-13,4.3844185179410715
2022-07-14,4.3844185179410715
2022-07-15,4.3844185179410715
2022-07-18,4.3844185179410715
2022-07-19,4.3844185179410715
2022-07-20,4.3844185179410715
2022-07-21,4.3844185179410715
2022-07-22,4.3844185179410715
2022-07-25,4.3844185179410715
2022-07-26,4.3844185179410715
2022-07-27,4.3844185179410715
2022-07-28,4.3844185179410715
2022-07-29,4.3844185179410715
2022-08-01,4.3844185179410715
2022-08-02,4.3844185179410715
2022-08-03,4.3844185179410715
2022-08-04,4.3844185179410715
2022-08-05,4.3844185179410715
2022-08-08,4.3844185179410715
2022-08-09,4.3844185179410715
2022-08-10,4.3844185179410715
2022-08-11,4.3844185179410715
2022-08-12,4.3844185179410715
2022-08-15,4.3844185179410715
2022-08-16,4.3844185179410715
2022-08-17,4.3844185179410715
2022-08-18,4.3844185179410715
2022-08-19,4.3844185179410715
2022-08-22,4.3844185179410715
2022-08-23,4.3844185179410715
2022-08-24,4.3844185179410715
2022-08-25,4.3844185179410715
2022-08-26,4.3844185179410715
2022-08-29,4.3844185179410715
2022-08-30,4.3844185179410715
2022-08-31,4.3844185179410715
2022-09-01,4.3844185179410715
2022-09-02,4.3844185179410715
2022-09-06,4.3844185179410715
2022-09-07,4.3844185179410715
2022-09-08,4.3844185179410715
2022-09-09,4.3844185179410715
2022-09-12,4.3844185179410715
2022-09-13,4.3844185179410715
2022-09-14,4.3844185179410715
2022-09-15,4.3844185179410715
2022-09-16,4.3844185179410715
2022-09-19,4.3844185179410715
2022-09-20,4.3844185179410715
2022-09-21,4.3844185179410715
2022-09-22,4.3844185179410715
2022-09-23,4.3844185179410715
2022-09-26,4.3844185179410715
2022-09-27,4.3844185179410715
2022-09-28,4.3844185179410715
2022-09-29,4.3844185179410715
2022-09-30,4.3844185179410715
2022-10-03,4.3844185179410715
2022-10-04,4.3844185179410715
2022-10-05,4.3844185179410715
2022-10-06,4.3844185179410715
2022-10-07,4.3844185179410715
2022-10-10,4.3844185179410715
2022-10-11,4.3844185179410715
2022-10-12,4.3844185179410715
2022-10-13,4.3844185179410715
2022-10-14,4.3844185179410715
2022-10-17,4.3844185179410715
2022-10-18,4.3844185179410715
2022-10-19,4.3844185179410715
2022-10-20,4.3844185179410715
2022-10-21,4.3844185179410715
2022-10-24,4.3844185179410715
2022-10-25,4.3844185179410715
2022-10-26,4.3844185179410715
2022-10-27,4.3844185179410715
2022-10-28,4.3844185179410715
2022-10-31,4.3844185179410715
2022-11-01,4.3844185179410715
2022-11-02,4.3844185179410715
2022-11-03,4.3844185179410715
2022-11-04,4.3844185179410715
2022-11-07,4.3844185179410715
2022-11-08,4.3844185179410715
2022-11-09,4.3844185179410715
2022-11-10,4.3844185179410715
2022-11-11,4.3844185179410715
2022-11-14,4.3844185179410715
2022-11-15,4.3844185179410715
2022-11-16,4.3844185179410715
2022-11-17,4.3844185179410715
2022-11-18,4.3844185179410715
2022-11-21,4.3844185179410715
2022-11-22,4.3844185179410715
2022-11-23,4.3844185179410715
2022-11-25,4.3844185179410715
2022-11-28,4.3844185179410715
2022-11-29,4.3844185179410715
2022-11-30,4.3844185179410715
2022-12-01,4.3844185179410715
2022-12-02,4.3844185179410715
2022-12-05,4.3844185179410715
2022-12-06,4.3844185179410715
2022-12-07,4.3844185179410715
2022-12-08,4.3844185179410715
2022-12-09,4.3844185179410715
2022-12-12,4.3844185179410715
2022-12-13,4.3844185179410715
2022-12-14,4.3844185179410715
2022-12-15,4.3844185179410715
2022-12-16,4.3844185179410715
2022-12-19,4.3844185179410715
2022-12-20,4.3844185179410715
2022-12-21,4.3844185179410715
2022-12-22,4.3844185179410715
2022-12-23,4.3844185179410715
2022-12-27,4.3844185179410715
2022-12-28,4.3844185179410715
2022-12-29,4.3844185179410715
2022-12-30,4.3844185179410715
2023-01-03,4.3844185179410715
2023-01-04,4.3844185179410715
2023-01-05,4.3844185179410715
2023-01-06,4.3844185179410715
2023-01-09,4.3844185179410715
2023-01-10,4.3844185179410715
2023-01-11,4.3844185179410715
2023-01-12,4.3844185179410715
2023-01-13,4.3844185179410715
2023-01-17,4.3844185179410715
2023-01-18,4.3844185179410715
2023-01-19,4.3844185179410715
2023-01-20,4.3844185179410715
2023-01-23,4.3844185179410715
2023-01-24,4.3844185179410715
2023-01-25,4.3844185179410715
2023-01-26,4.3844185179410715
2023-01-27,4.3844185179410715
2023-01-30,4.3844185179410715
2023-01-31,4.3844185179410715
2023-02-01,4.3844185179410715
2023-02-02,4.3844185179410715
2023-02-03,4.3844185179410715
2023-02-06,4.40871298160918
2023-02-07,4.588271873559353
2023-02-08,4.495389864870299
2023-02-09,4.444541556733254
2023-02-10,4.287283243880994
2023-02-13,4.40444252759494
2023-02-14,4.529676463899673
2023-02-15,4.480599824623649
2023-02-16,4.344840421556228
2023-02-17,4.285318266528009
2023-02-21,4.198684118147499
2023-02-22,4.197832466407732
2023-02-23,4.502767441089566
2023-02-24,4.46293993128435
2023-02-27,4.470265268317206
2023-02-28,4.475607801105992
2023-03-01,4.411072367843094
2023-03-02,4.483247757039776
2023-03-03,4.614155949471817
2023-03-06,4.576461089792259
2023-03-07,4.546296672572092
2023-03-08,4.643415356675072
2023-03-09,4.543421298608255
2023-03-10,4.479506686565719
2023-03-13,4.488716718748735
2023-03-14,4.69025972850913
2023-03-15,4.732080175230863
2023-03-16,4.917477664440822
2023-03-17,4.8758200752734
2023-03-20,4.9086722082201675
2023-03-21,4.96867521354706
2023-03-22,4.981629725873404
2023-03-23,5.087100593705944
2023-03-24,5.0550147649450565
2023-03-27,5.00811646142818
2023-03-28,4.981215862671819
2023-03-29,5.072295178447739
2023-03-30,5.130652508069062
2023-03-31,5.199029048899863
2023-04-03,5.226242335201336
2023-04-04,5.183094966599182
2023-04-05,5.101593709543405
2023-04-06,5.148295095581725
2023-04-10,5.196569780011302
2023-04-11,5.147467800796623
2023-04-12,5.077422968067561
2023-04-13,5.115643804650995
2023-04-14,5.154199326319951
2023-04-17,5.162685368155444
2023-04-18,5.226410482121247
2023-04-19,5.239886632892752
2023-04-20,5.135508616501323
2023-04-21,5.135910301788522
2023-04-24,5.127140400564413
2023-04-25,5.008406603714926
2023-04-26,5.095872722930061
2023-04-27,5.315329799889357
2023-04-28,5.38197380930173
2023-05-01,5.523055567348537
2023-05-02,5.4234802468371885
2023-05-03,5.366007895443801
2023-05-04,5.317725634508978
2023-05-05,5.430695656504877
2023-05-08,5.483539758119759
2023-05-09,5.423073170842311
2023-05-10,5.454264301613776
2023-05-11,5.439662374152141
2023-05-12,5.401612129054499
2023-05-15,5.49929052295138
2023-05-16,5.526427621612234
2023-05-17,5.652160572147132
2023-05-18,5.838792764249565
2023-05-19,5.787238346459667
2023-05-22,5.795519892519028
2023-05-23,5.733743666686516
2023-05-24,5.734115532129234
2023-05-25,6.541164978753937
2023-05-26,6.704208124003914
2023-05-30,6.8301231825550985
2023-05-31,6.604577720608484
2023-06-01,6.860277922510923
2023-06-02,6.813594048078201
2023-06-05,6.7891632281585625
2023-06-06,6.732912408246875
2023-06-07,6.55981753738166
2023-06-08,6.675318825152962
2023-06-09,6.705145176306052
2023-06-12,6.820140945207546
2023-06-13,6.984214993706642
2023-06-14,7.205664255665079
2023-06-15,7.224953828798071
2023-06-16,7.223626965447803
2023-06-20,7.363057606526747
2023-06-21,7.265023999989252
2023-06-22,7.284137790298878
2023-06-23,7.223355400574523
2023-06-26,6.989945816718572
2023-06-27,7.177254775566549
2023-06-28,7.0857329323583915
2023-06-29,7.030013890133853
2023-06-30,7.2216942539505045
2023-07-03,7.227103848139542
2023-07-05,7.271681153149638
2023-07-06,7.233537856315985
2023-07-07,7.266130858209436
2023-07-10,7.255473708152335
2023-07-11,7.306632420156484
2023-07-12,7.536785045094922
2023-07-13,7.78213622633786
2023-07-14,7.698858115453909
2023-07-17,7.814870532259421
2023-07-18,7.933108219631352
2023-07-19,7.915099015208254
2023-07-20,7.66263850161854
2023-07-21,7.480903560484393
2023-07-24,7.490894032377108
2023-07-25,7.603348793079029
2023-07-26,7.5794246452693175
2023-07-27,7.626641240383169
2023-07-28,7.716225223927343
2023-07-31,7.673400073299622
2023-08-01,7.710669962122684
2023-08-02,7.325422214258646
2023-08-03,7.364663422844472
2023-08-04,7.522526809503413
2023-08-07,7.72669696314459
2023-08-08,7.59832009997861
2023-08-09,7.012815561712166
2023-08-10,7.012815561712166
2023-08-11,7.012815561712166
2023-08-14,7.093260147000032
2023-08-15,7.069279565056375
2023-08-16,7.039944414496274
2023-08-17,6.938154767689364
2023-08-18,6.927490972623281
2023-08-21,6.959580077747901
2023-08-22,6.99303173674714
2023-08-23,7.038507120594066
2023-08-24,6.959246206339349
2023-08-25,6.979665024064145
2023-08-28,7.014734245961534
2023-08-29,7.082700024037618
2023-08-30,7.139166203944739
2023-08-31,7.129220888064182
2023-09-01,7.132873329823878
2023-09-05,7.066549290322147
2023-09-06,6.985884480293177
2023-09-07,6.997298567667929
2023-09-08,6.980862253981861
2023-09-11,6.981511675600375
2023-09-12,6.928586602886807
2023-09-13,6.862222589800914
2023-09-14,6.979841414753339
2023-09-15,6.9294062181990395
2023-09-18,6.9642337548494435
2023-09-19,6.735067806088639
2023-09-20,6.698856224874691
2023-09-21,6.698856224874691
2023-09-22,6.698856224874691
2023-09-25,6.674118172533484
2023-09-26,6.693556971390125
2023-09-27,6.719662239902895
2023-09-28,6.7540404190533465
2023-09-29,6.763178479981038
2023-10-02,6.770185458108964
2023-10-03,6.659325120882438
2023-10-04,6.707950532793953
2023-10-05,6.718523748144667
2023-10-06,6.851407432679583
2023-10-09,6.929949995951432
2023-10-10,6.949132853571635
2023-10-11,7.07164376385108
2023-10-12,7.073830621050307
2023-10-13,7.048913274211076
2023-10-16,7.086486278691758
2023-10-17,7.065605353732909
2023-10-18,7.067070622234674
2023-10-19,7.014591355421301
2023-10-20,6.943804622941782
2023-10-23,6.9111210790816475
2023-10-24,6.9689633233342665
2023-10-25,6.867214651403827
2023-10-26,6.799653155771637
2023-10-27,6.792846082002549
2023-10-30,6.809253937317435
2023-10-31,6.813355755540347
2023-11-01,6.8287116741781215
2023-11-02,6.835548203112309
2023-11-03,6.826503012359785
2023-11-06,6.789091559284846
2023-11-07,6.897948399489622
2023-11-08,6.9102929673361775
2023-11-09,6.850861264858184
2023-11-10,6.974952927289072
2023-11-13,7.0745897717581325
2023-11-14,7.200853548795884
2023-11-15,7.156807042165412
2023-11-16,7.083794028185117
2023-11-17,7.134714598988991
2023-11-20,7.259721601516667
2023-11-21,7.029084435151148
2023-11-22,7.022374336900839
2023-11-24,6.960768007242011
2023-11-27,6.930383797478994
2023-11-28,7.075138771450007
2023-11-29,7.4953925306600855
2023-11-30,7.575966160113553
2023-12-01,7.576747145370314
2023-12-04,7.3788959294615175
2023-12-05,7.407426008001371
2023-12-06,7.4155515987593725
2023-12-07,7.429094341865314
2023-12-08,7.472070068157066
2023-12-11,7.598621469827545
2023-12-12,7.640218618316856
2023-12-13,7.665544178587879
2023-12-14,7.703737080993936
2023-12-15,7.8051939024509664
2023-12-18,7.793604432092245
2023-12-19,7.78666104676923
2023-12-20,7.635200813690911
2023-12-21,7.735253886486227
2023-12-22,7.717301915039997
2023-12-26,7.771318959189915
2023-12-27,7.8267226092631
2023-12-28,7.798198720013977
2023-12-29,7.704668265870746
2024-01-02,7.40430085335766
2024-01-03,7.311234928210998
2024-01-04,7.311234928210998
2024-01-05,7.311234928210998
2024-01-08,7.5989384827426605
2024-01-09,7.860412798466665
2024-01-10,7.961676660744393
2024-01-11,7.984123681697026
2024-01-12,7.929119418111007
2024-01-16,8.28900846421967
2024-01-17,8.180839721295843
2024-01-18,8.345214416900248
2024-01-19,8.754115531141803
2024-01-22,8.71438454580787
2024-01-23,8.700463248887171
2024-01-24,9.001204936817249
2024-01-25,8.955362947529391
2024-01-26,8.829432318009307
2024-01-29,8.994884613780968
2024-01-30,8.854475442227862
2024-01-31,8.612227887719463
2024-02-01,8.784590684690766
2024-02-02,9.032542309268658
2024-02-05,8.92753578845891
2024-02-06,8.75663823651151
2024-02-07,9.063740610879195
2024-02-08,9.098664018013125
2024-02-09,9.271609829732508
2024-02-12,9.139941771958824
2024-02-13,9.146993922329477
2024-02-14,9.509215479567748
2024-02-15,9.412685572853244
2024-02-16,9.306360475669573
2024-02-20,9.013063665656952
2024-02-21,8.627964191441556
2024-02-22,9.085567677759428
2024-02-23,8.94648970835101
2024-02-26,8.900029462725902
2024-02-27,8.93052160293372
2024-02-28,8.835854198529738
2024-02-29,9.331377494008546
2024-03-01,9.767505702929578
2024-03-04,9.999760642256074
2024-03-05,10.033661613640714
2024-03-06,10.326213028117342
2024-03-07,10.562338395054688
2024-03-08,10.17787160359978
2024-03-11,9.847752359884586
2024-03-12,10.296578842038763
2024-03-13,10.018938480943222
2024-03-14,9.858281757500755
2024-03-15,9.852442997159287
2024-03-18,10.23097761106373
2024-03-19,10.242471988762114
2024-03-20,10.521317215538739
2024-03-21,10.688254892637497
2024-03-22,10.790711735210094
2024-03-25,10.936981883219284
2024-03-26,10.68544164591623
2024-03-27,10.384572785370663
2024-03-28,10.418568748078027
2024-04-01,10.412680917728814
2024-04-02,10.408419675194663
2024-04-03,10.62785839393141
2024-04-04,10.454655253859904
2024-04-05,10.727326057903861
2024-04-08,10.934657603712838
2024-04-09,10.781046449701439
2024-04-10,10.766940562645033
2024-04-11,10.915835904266096
2024-04-12,10.706599077833115
2024-04-15,10.33367480075173
2024-04-16,10.412002372700783
2024-04-17,10.184004801816815
2024-04-18,9.929733554637384
2024-04-19,9.829460297379704
2024-04-22,9.891389911332277
2024-04-23,9.953951208899545
2024-04-24,9.986392237890298
2024-04-25,9.886930867225256
2024-04-26,10.388858479070782
2024-04-29,10.20529371286069
2024-04-30,10.100278212964039
2024-05-01,10.132125346546346
2024-05-02,10.221599694752518
2024-05-03,10.239821195008782
2024-05-06,10.266747960122784
2024-05-07,10.366527583569969
2024-05-08,10.308080670713526
2024-05-09,10.323932822874838
2024-05-10,10.28275214582558
2024-05-13,10.300163434094003
2024-05-14,10.335497150367932
2024-05-15,10.40076872256677
2024-05-16,10.45177814514341
2024-05-17,10.511014100525307
2024-05-20,10.543139339571962
2024-05-21,10.574960801547487
2024-05-22,10.527294160441993
2024-05-23,10.435917515658666
2024-05-24,10.478853447892838
2024-05-28,10.527927194246928
2024-05-29,10.510198896388221
2024-05-30,10.389358904868041
2024-05-31,10.401870261806241
2024-06-03,10.419784979090167
2024-06-04,10.44084210430843
2024-06-05,10.497198064546108
2024-06-06,10.538380245887454
2024-06-07,10.464427584194475
2024-06-10,10.49026232310428
2024-06-11,10.54053076590197
2024-06-12,10.580787529227587
2024-06-13,10.494388066743369
2024-06-14,10.546079025500942
2024-06-17,10.559719001886378
2024-06-18,10.488699033288862
2024-06-20,10.527859502575577
2024-06-21,10.621161275282182
2024-06-24,10.622982205993171
2024-06-25,10.775203553904792
2024-06-26,10.769501032196843
2024-06-27,10.817390227253988
2024-06-28,10.711169055350927
2024-07-01,10.741434811214138
2024-07-02,10.810737717892106
2024-07-03,10.83228424764446
2024-07-05,10.980558305487364
2024-07-08,10.93218887408565
2024-07-09,10.930760391332761
2024-07-10,11.000843562469047
2024-07-11,10.826880015487616
2024-07-12,10.81070779390826
2024-07-15,10.856220217477746
2024-07-16,10.772188308784553
2024-07-17,10.674974341309515
2024-07-18,10.674974341309515
2024-07-19,10.674974341309515
2024-07-22,10.71139228760059
2024-07-23,10.687618354681993
2024-07-24,10.13978655992575
2024-07-25,10.077057751298575
2024-07-26,10.077057751298575
2024-07-29,10.02134186679831
2024-07-30,9.96224706960121
2024-07-31,10.003671931839193
2024-08-01,9.952705119602957
2024-08-02,9.77406722824144
2024-08-05,9.642841298672113
2024-08-06,9.65064772116255
2024-08-07,9.551239158617692
2024-08-08,9.601725310794173
2024-08-09,9.540443493077056
2024-08-12,9.452943183174472
2024-08-13,9.56400689155494
2024-08-14,9.617180341703074
2024-08-15,9.640876192808346
2024-08-16,9.690897728993999
2024-08-19,9.745284721790282
2024-08-20,9.74061959012967
2024-08-21,9.770030269212898
2024-08-22,9.74559817770418
2024-08-23,9.760597605526497
2024-08-26,9.694896427393058
2024-08-27,9.695377419308505
2024-08-28,9.707067931418806
2024-08-29,9.785785634971926
2024-08-30,9.809340860252284
2024-09-03,9.75509157656909
2024-09-04,9.652475197943964
2024-09-05,9.641044313322121
2024-09-06,9.639457030329075
2024-09-09,9.685145873678346
2024-09-10,9.799007037019043
2024-09-11,9.82738196452843
2024-09-12,9.885022100685724
2024-09-13,9.855168171994592
2024-09-16,9.866044984821102
2024-09-17,9.834862466805175
2024-09-18,9.804854071949435
2024-09-19,9.837086056869566
2024-09-20,9.792330178909856
2024-09-23,9.802697790670745
2024-09-24,9.800032303532726
2024-09-25,9.735268773563238
2024-09-26,9.68936620822586
2024-09-27,9.707633854877013
2024-09-30,9.830550589893203
2024-10-01,9.837555977118917
2024-10-02,9.890181616677285
2024-10-03,10.019765946570756
2024-10-04,10.200843365941324
2024-10-07,10.20673789910156
2024-10-08,10.367046181779282
2024-10-09,10.392670829956346
2024-10-10,10.400290705341925
2024-10-11,10.491362767598181
2024-10-14,10.429953320910466
2024-10-15,10.397998615301232
2024-10-16,10.467333477150857
2024-10-17,10.416567339789518
2024-10-18,10.48043488839635
2024-10-21,10.984708144408598
2024-10-22,11.048439972064012
2024-10-23,11.035738281051158
2024-10-24,11.070210984663762
2024-10-25,11.17722428543971
2024-10-28,11.342660366378007
2024-10-29,11.5510072916458
2024-10-30,11.535312897270943
2024-10-31,11.466399956600041
2024-11-01,11.265784843040374
2024-11-04,11.108363912640447
2024-11-05,11.35125311030145
2024-11-06,11.526453665363812
2024-11-07,14.689370654116741
2024-11-08,16.299348999713267
2024-11-11,16.178021019937745
2024-11-12,16.19095152162283
2024-11-13,15.920609671293427
2024-11-14,15.94075405421819
2024-11-15,16.191609443793595
2024-11-18,16.165159377877
2024-11-19,17.182428917427536
2024-11-20,17.267674729069892
2024-11-21,16.94234691572284
2024-11-22,17.75130045946782
2024-11-25,17.253521728061074
2024-11-26,17.72654074021256
2024-11-27,17.705036955248413
2024-11-29,18.09768075358712
2024-12-02,18.18913232303464
2024-12-03,19.53679395528475
2024-12-04,19.720880370030002
2024-12-05,20.084536681625206
2024-12-06,21.290129798935446
2024-12-09,18.73967867864077
2024-12-10,18.615671023561536
2024-12-11,18.74362820883223
2024-12-12,18.798127989269442
2024-12-13,19.024817403189648
2024-12-16,19.47049419381513
2024-12-17,19.724716721112863
2024-12-18,18.644026363207672
2024-12-19,18.772245903935975
2024-12-20,18.913305371322096
2024-12-23,19.017583694525527
2024-12-24,19.334988626558676
2024-12-26,19.295877083275677
2024-12-27,18.878657449515174
2024-12-30,18.563980300044896
2024-12-31,18.339932816930393
2025-01-02,18.566364664660952
2025-01-03,19.32559468241682
2025-01-06,19.081727382981565
2025-01-07,18.379871066427775
2025-01-08,18.51178171073473
2025-01-10,18.18828553347812
2025-01-13,18.366400340828495
2025-01-14,18.358536578698036
2025-01-15,18.493235660676703
2025-01-16,18.65482637558824
2025-01-17,19.422320805351127
2025-01-21,19.39866225181366
2025-01-22,19.531086338475383
2025-01-23,19.589625581362682
2025-01-24,19.508594125740476
2025-01-27,17.986697144665413
2025-01-28,17.986697144665413
2025-01-29,17.986697144665413
2025-01-30,17.986697144665413
2025-01-31,17.986697144665413
2025-02-03,18.341323916320498
2025-02-04,19.65730142745451
2025-02-05,19.366169152908114
2025-02-06,20.08010713470858
2025-02-07,19.993519578351492
2025-02-10,20.4294302100125
2025-02-11,20.08687507641126
2025-02-12,20.41906169729039
2025-02-13,21.61022376665723
2025-02-14,22.169588716182187
2025-02-18,22.296273164976096
2025-02-19,21.568118811644243
2025-02-20,20.242150033466878
2025-02-21,20.242150033466878
2025-02-24,20.183454923480063
2025-02-25,20.085037868417757
2025-02-26,20.100068606559084
2025-02-27,20.020171876423117
2025-02-28,20.04534727901367
2025-03-03,20.09569495708766
2025-03-04,19.893095557774956
2025-03-05,19.86427555924825
2025-03-06,19.89198631385131
2025-03-07,19.95526049670412
2025-03-10,19.936324679632822
2025-03-11,19.936324679632822
2025-03-12,19.936324679632822
2025-03-13,19.936324679632822
2025-03-14,19.936324679632822
2025-03-17,19.936324679632822
2025-03-18,19.936324679632822
2025-03-19,19.936324679632822
2025-03-20,19.936324679632822
2025-03-21,19.936324679632822
2025-03-24,19.936324679632822
2025-03-25,19.936324679632822
2025-03-26,19.936324679632822
2025-03-27,19.936324679632822
2025-03-28,19.936324679632822
2025-03-31,19.936324679632822
2025-04-01,19.936324679632822
2025-04-02,19.936324679632822
2025-04-03,19.936324679632822
2025-04-04,19.936324679632822
2025-04-07,19.936324679632822
2025-04-08,19.936324679632822
2025-04-09,19.936324679632822
2025-04-10,19.936324679632822
2025-04-11,19.936324679632822
2025-04-14,19.936324679632822
2025-04-15,19.936324679632822
2025-04-16,19.936324679632822
2025-04-17,19.936324679632822
2025-04-21,19.936324679632822
2025-04-22,19.936324679632822
2025-04-23,19.936324679632822
2025-04-24,19.936324679632822
2025-04-25,19.936324679632822
2025-04-28,19.936324679632822
2025-04-29,19.936324679632822
2025-04-30,19.936324679632822
2025-05-01,19.936324679632822
2025-05-02,19.936324679632822
2025-05-05,19.936324679632822
2025-05-06,19.936324679632822
2025-05-07,19.936324679632822
2025-05-08,19.936324679632822
2025-05-09,19.936324679632822
2025-05-12,19.936324679632822
2025-05-13,19.936324679632822
2025-05-14,19.936324679632822
2025-05-15,19.936324679632822
2025-05-16,19.936324679632822
2025-05-19,20.08023758747787
2025-05-20,20.024420035883985
2025-05-21,19.712106926085085
2025-05-22,19.86442537543111
2025-05-23,19.565812958325303
2025-05-27,19.755500210322957
2025-05-28,19.767805306225902
2025-05-29,19.632498501713812
2025-05-30,20.457532085069978
2025-06-02,20.59504878672533
2025-06-03,20.719517298163936
2025-06-04,20.357372371174414
2025-06-05,19.580228118523166
2025-06-06,19.641891514473265
2025-06-09,19.57381837507755
2025-06-10,19.63399864303591
2025-06-11,19.915907668552123
2025-06-12,19.752990096341193
2025-06-13,19.55134707625323
2025-06-16,20.017386686384178
2025-06-17,19.520307864140385
2025-06-18,19.48817940753122
2025-06-20,19.275571869488445
2025-06-23,19.70455501964508
2025-06-24,19.91422161901559
2025-06-25,19.98445821637366
2025-06-26,20.143686025019235
2025-06-27,19.104212099965707
2025-06-30,19.512331351398046
2025-07-01,18.879842026831284
2025-07-02,19.05010511988324
2025-07-03,19.37845321586762
2025-07-07,19.777572222704855
2025-07-08,19.742115637270224
2025-07-09,20.126901095224234
2025-07-10,19.518829729181128
2025-07-11,19.365106045798747
2025-07-14,19.9226615596817
2025-07-15,20.075326072978704
2025-07-16,20.482811664693358
2025-07-17,20.988980280835253
2025-07-18,20.83625031277482
2025-07-21,20.631318994538674
2025-07-22,20.22441989206873
2025-07-23,20.801081286876787
2025-07-24,20.851919494428135
2025-07-25,21.24675094323389
2025-07-28,21.26360406470615
2025-07-29,21.211741997916395
2025-07-30,21.422807214827582
2025-07-31,21.51265363798945
2025-08-01,20.860251079216297
2025-08-04,21.65401242958862
2025-08-05,22.771479269895075
2025-08-06,23.29914596018073
2025-08-07,23.266070450443326
2025-08-08,23.66955962402951
2025-08-11,23.41925039518404
2025-08-12,23.803320670241803
2025-08-13,23.257692788394877
2025-08-14,23.01715752311773
2025-08-15,22.82529767018064
2025-08-18,22.60189590078592
2025-08-19,21.674558433896735
2025-08-20,21.674558433896735
2025-08-21,21.674558433896735
2025-08-22,21.674558433896735
2025-08-25,21.913106276100525
2025-08-26,22.39678550818237
2025-08-27,22.165588974149337
2025-08-28,22.804837755404737
2025-08-29,22.65781381976562
2025-09-02,22.562627322164957
2025-09-03,22.79181116761803
2025-09-04,23.482025087139682
2025-09-05,23.371121893880982
2025-09-08,24.72296418552836
2025-09-09,24.782860827588745
2025-09-10,24.907674772447336
2025-09-11,25.22870564890762
2025-09-12,25.364778931695497
2025-09-15,25.986227047445396
2025-09-16,26.196248056689008
2025-09-17,26.317458916391487
2025-09-18,27.009681406093264
2025-09-19,27.79220589997313
2025-09-22,27.93643625178249
2025-09-23,27.572631554471386
2025-09-24,27.259244906428606
2025-09-25,26.80066855363323
2025-09-26,27.537840149902333
2025-09-29,28.571104778763512
2025-09-30,28.425509993628843
2025-10-01,28.834918027380922
2025-10-02,28.766927920463516
2025-10-03,28.594815617405317
2025-10-06,27.70204599387028
2025-10-07,27.88771103740372
2025-10-08,27.9709411633362
2025-10-09,28.089382719786933
2025-10-10,27.63162069056358
2025-10-13,27.666360284120408
2025-10-14,27.262244349088782
2025-10-15,29.036701275456217
2025-10-16,28.683781551361676
2025-10-17,28.645266871982408
2025-10-20,29.463881581952805
2025-10-21,29.311417827582567
2025-10-22,28.4374962520781
2025-10-23,29.133332409065787
2025-10-24,30.2976233480967
2025-10-27,31.124820293837757
2025-10-28,31.657608376601353
2025-10-29,31.99363748538235
2025-10-30,31.019998987872107
2025-10-31,31.04595526264835
2025-11-03,31.110758385163358
2025-11-04,29.71726625023151
2025-11-05,30.54375874222655
2025-11-06,29.008997257865794
2025-11-07,28.887941212265766
2025-11-10,29.304196147547874
2025-11-11,28.405355380048455
2025-11-12,28.631283518100105
2025-11-13,27.637495919996972
2025-11-14,28.218119498722743
2025-11-17,27.72519780829259
2025-11-18,26.899676693073893
2025-11-19,26.281138903522713
2025-11-20,26.117762176143565
2025-11-21,26.117762176143565
2025-11-24,26.294754381144664
2025-11-25,26.619284387737096
2025-11-26,26.522731058353337
2025-11-28,26.489535813720167
2025-12-01,26.119767008469317
2025-12-02,26.06931157345585
2025-12-03,25.99180193570546
2025-12-04,25.94213574696203
2025-12-05,25.98054098452657
2025-12-08,25.747733730970644
2025-12-09,25.818292872411824
2025-12-10,25.88402288572361
2025-12-11,25.72064315587877
2025-12-12,25.654704072743584
2025-12-15,25.57955700430449
2025-12-16,25.48564623072589
2025-12-17,25.122308862596896
2025-12-18,25.249854057427694
2025-12-19,25.320820879549917
2025-12-22,25.358488706908446
2025-12-23,25.3735329898941
2025-12-24,25.865421309367484
2025-12-26,25.805865025199537
2025-12-29,26.279704048593782
2025-12-30,26.124582754079082
2025-12-31,25.719921444033197
2026-01-02,27.389554429047834
2026-01-05,27.61597627987619
2026-01-06,29.339371378745508
2026-01-07,29.06804711170233
2026-01-08,28.23436605208188
2026-01-09,29.54178410315967
2026-01-12,29.725436368777036
2026-01-13,29.31173922650702
2026-01-14,29.019273623903523
2026-01-15,29.589309746743528
2026-01-16,30.983745135350873
2026-01-20,30.873083689470395
2026-01-21,32.15265665233542
2026-01-22,32.38482389841917
2026-01-23,32.56755765357978
2026-01-26,32.010778917267594
2026-01-27,33.30642342410192
2026-01-28,34.55633200441119
2026-01-29,34.69172081665947
2026-01-30,33.26639594970389
2026-02-02,34.46857147296754
2026-02-03,33.38706032056697
2026-02-04,30.883557851781692
2026-02-05,30.883557851781692
2026-02-06,30.883557851781692
2026-02-09,30.949651243858955
2026-02-10,30.651750795943332
2026-02-11,31.690892372953922
2026-02-12,31.635387925524764
2026-02-13,31.73148645427231
2026-02-17,31.492229951645868
2026-02-18,32.07363683140372
2026-02-19,31.90959556945258
2026-02-20,32.38290701626761
2026-02-23,32.14753961687184
2026-02-24,32.15426080166938
2026-02-25,32.553476970295776
2026-02-26,31.92993209286076
2026-02-27,31.690594789592577
2026-03-02,31.599245788128687
2026-03-03,30.552313038285515
2026-03-04,30.980045158925765
2026-03-05,30.904599188336594
2026-03-06,30.362074269571462
2026-03-09,30.897253572290225
2026-03-10,30.86811253045547
2026-03-11,31.081369877137696
2026-03-12,30.22944794903566
2026-03-13,30.070298714509377
2026-03-16,29.79129905234136
2026-03-17,30.087944999361177
2026-03-18,29.499920705713212
2026-03-19,29.205606945297287
2026-03-20,28.845385099989258
2026-03-23,28.900168364767307
2026-03-24,28.900168364767307
2026-03-25,28.900168364767307
2026-03-26,28.900168364767307
2026-03-27,28.900168364767307
2026-03-30,28.900168364767307
2026-03-31,28.900168364767307
2026-04-01,28.900168364767307
2026-04-02,28.900168364767307
2026-04-06,28.900168364767307
2026-04-07,28.900168364767307
2026-04-08,28.900168364767307
2026-04-09,28.900168364767307
2026-04-10,28.900168364767307
2026-04-13,29.745211733352726
2026-04-14,29.708121695927645
2026-04-15,30.05633317756817
2026-04-16,30.746892436370494
2026-04-17,31.44955179630358
2026-04-20,31.704973299675608
2026-04-21,32.22090882588739
2026-04-22,32.659034057527236
2026-04-23,33.92606859601946
2026-04-24,37.449579038860065
2026-04-27,37.34073884707513
2026-04-28,36.677836338129424
2026-04-29,39.42654196740483
2026-04-30,40.31772131746456
2026-05-01,41.489976194755
2026-05-04,40.45417146173584
2026-05-05,43.894757658291454
2026-05-06,45.4021908071978
2026-05-07,43.26465787086925
2026-05-08,47.94538626150887
2026-05-11,49.07473238338439
2026-05-12,46.31783602044861
2026-05-13,47.73884358414603
2026-05-14,47.240382495339276
2026-05-15,44.96359944178511
2026-05-18,43.62778065489387
2026-05-19,44.07619249000499
2026-05-20,47.02319576704884
