Date,Value
2018-01-02,1.0
2018-01-03,1.0
2018-01-04,1.0
2018-01-05,1.0
2018-01-08,1.0243276923826679
2018-01-09,1.022997488831695
2018-01-10,1.0174173973635758
2018-01-11,1.0211812661577055
2018-01-12,1.0218670095042373
2018-01-16,1.0110189039761224
2018-01-17,1.0082068621852476
2018-01-18,1.0097510140286383
2018-01-19,1.0154539088133494
2018-01-22,1.0384294248288284
2018-01-23,1.056559159616182
2018-01-24,1.0549172841385075
2018-01-25,1.0694383991263074
2018-01-26,1.1117660361505435
2018-01-29,1.1304885180207598
2018-01-30,1.132157039331126
2018-01-31,1.1382090110813616
2018-02-01,1.1024881411216334
2018-02-02,1.101784245495565
2018-02-05,1.0644420644997523
2018-02-06,1.0644420644997523
2018-02-07,1.0644420644997523
2018-02-08,1.0644420644997523
2018-02-09,1.0644420644997523
2018-02-12,1.0805881872131309
2018-02-13,1.0768684353017555
2018-02-14,1.109846452272739
2018-02-15,1.1257488444031936
2018-02-16,1.1229954135392304
2018-02-20,1.1343578100840623
2018-02-21,1.1156624097766592
2018-02-22,1.115364265530246
2018-02-23,1.1296721219671584
2018-02-26,1.136782615817519
2018-02-27,1.1360358700921425
2018-02-28,1.1380355669835707
2018-03-01,1.1340555092393316
2018-03-02,1.145090327080255
2018-03-05,1.1652951835220646
2018-03-06,1.180872730803978
2018-03-07,1.1812711666604763
2018-03-08,1.184930890560491
2018-03-09,1.2039478983545966
2018-03-12,1.1910662289933622
2018-03-13,1.179238092669196
2018-03-14,1.1872294171371158
2018-03-15,1.1892475124229036
2018-03-16,1.1860511504692353
2018-03-19,1.177352602163445
2018-03-20,1.197760525871272
2018-03-21,1.1886769551528689
2018-03-22,1.1698300385423053
2018-03-23,1.1550434629624378
2018-03-26,1.1532183528727604
2018-03-27,1.1406248884052623
2018-03-28,1.1346689826043956
2018-03-29,1.1346689826043956
2018-04-02,1.1197513389762848
2018-04-03,1.1309739124609617
2018-04-04,1.1399674988539479
2018-04-05,1.1533938892552689
2018-04-06,1.1406330340082036
2018-04-09,1.1354721470704474
2018-04-10,1.1431774008918083
2018-04-11,1.142512349630176
2018-04-12,1.1569039390935836
2018-04-13,1.1472979304808486
2018-04-16,1.1528464541906833
2018-04-17,1.1636422712711418
2018-04-18,1.1649250029236167
2018-04-19,1.1565874500739393
2018-04-20,1.152879616009748
2018-04-23,1.1508350788934378
2018-04-24,1.1511796629828475
2018-04-25,1.1496605853739363
2018-04-26,1.163806315960747
2018-04-27,1.1600956505285025
2018-04-30,1.1544512758636687
2018-05-01,1.1569890866620545
2018-05-02,1.161040124242685
2018-05-03,1.1558857079175344
2018-05-04,1.1589436938046453
2018-05-07,1.171654134328429
2018-05-08,1.1779285378062085
2018-05-09,1.1916579837653534
2018-05-10,1.1892610884934414
2018-05-11,1.1779572808384398
2018-05-14,1.1782054711142425
2018-05-15,1.1772520157360384
2018-05-16,1.1770881061294771
2018-05-17,1.172112116924003
2018-05-18,1.1729641813959915
2018-05-21,1.1945400930055938
2018-05-22,1.1904437400627956
2018-05-23,1.2183005210163593
2018-05-24,1.22989675941783
2018-05-25,1.2337230451472923
2018-05-29,1.228640796273407
2018-05-30,1.2383782669754633
2018-05-31,1.23239033591843
2018-06-01,1.2491415043583916
2018-06-04,1.2507968293318417
2018-06-05,1.2513223232389028
2018-06-06,1.2529097784621155
2018-06-07,1.2353076498557258
2018-06-08,1.2338113301097562
2018-06-11,1.2553560470253007
2018-06-12,1.264252454574843
2018-06-13,1.3113165668650408
2018-06-14,1.3319579811887317
2018-06-15,1.3338078730447829
2018-06-18,1.3605130374023822
2018-06-19,1.370677598082377
2018-06-20,1.385389613543851
2018-06-21,1.3496181980134865
2018-06-22,1.347533313219893
2018-06-25,1.2788720935453608
2018-06-26,1.2788720935453608
2018-06-27,1.2788720935453608
2018-06-28,1.2788720935453608
2018-06-29,1.2788720935453608
2018-07-02,1.2672328891384055
2018-07-03,1.246596126388027
2018-07-05,1.253124052602781
2018-07-06,1.2613025973050338
2018-07-09,1.2656481059370885
2018-07-10,1.260604434323732
2018-07-11,1.2525012063856895
2018-07-12,1.2592165351626312
2018-07-13,1.2335478876839836
2018-07-16,1.2491746424951915
2018-07-17,1.2476949186067134
2018-07-18,1.2469371669351843
2018-07-19,1.2416329774976584
2018-07-20,1.2336768017361344
2018-07-23,1.2226284355929544
2018-07-24,1.1880695819717406
2018-07-25,1.202285083828067
2018-07-26,1.2873733300782155
2018-07-27,1.2948140223688864
2018-07-30,1.294570669074727
2018-07-31,1.2527206287227943
2018-08-01,1.263662076168352
2018-08-02,1.2617800372733723
2018-08-03,1.2504139789899682
2018-08-06,1.2805146530457183
2018-08-07,1.2873519685596857
2018-08-08,1.258130007074183
2018-08-09,1.2399444005365483
2018-08-10,1.2384288971934905
2018-08-13,1.2572580109384777
2018-08-14,1.2781990920901078
2018-08-15,1.2617053410539167
2018-08-16,1.2508433346418184
2018-08-17,1.2730164830064528
2018-08-20,1.282995809664011
2018-08-21,1.298827290126728
2018-08-22,1.3295858421597337
2018-08-23,1.396815138268284
2018-08-24,1.4768670192486968
2018-08-27,1.5301366487575416
2018-08-28,1.5305967158693448
2018-08-29,1.5366844360185083
2018-08-30,1.5110202138559552
2018-08-31,1.5359524016454227
2018-09-04,1.6591215087846987
2018-09-05,1.6631414633684205
2018-09-06,1.6912494751081022
2018-09-07,1.684261014011358
2018-09-10,1.806547833874979
2018-09-11,1.8264001573053639
2018-09-12,1.8834390585896283
2018-09-13,1.8119064854228233
2018-09-14,1.9031659580319409
2018-09-17,1.8888608402204707
2018-09-18,1.8859408025325684
2018-09-19,1.854130482213155
2018-09-20,1.8463579944997115
2018-09-21,1.833174656726791
2018-09-24,1.9011024903212508
2018-09-25,1.9138299865739428
2018-09-26,1.8940918458660687
2018-09-27,1.8851306661385414
2018-09-28,1.830272494021064
2018-10-01,1.828583356338856
2018-10-02,1.7057177696096375
2018-10-03,1.6668762716325483
2018-10-04,1.6668762716325483
2018-10-05,1.6668762716325483
2018-10-08,1.6663233591710174
2018-10-09,1.6718760853608399
2018-10-10,1.6407542891524856
2018-10-11,1.6407542891524856
2018-10-12,1.6407542891524856
2018-10-15,1.6435194496731822
2018-10-16,1.6512328483314278
2018-10-17,1.6606197393029214
2018-10-18,1.657272491657261
2018-10-19,1.6574180070101703
2018-10-22,1.6583120372877682
2018-10-23,1.660469951073021
2018-10-24,1.6539896736960855
2018-10-25,1.6674427268669323
2018-10-26,1.6599437105100496
2018-10-29,1.6668116574715746
2018-10-30,1.6668116574715746
2018-10-31,1.6668116574715746
2018-11-01,1.6668116574715746
2018-11-02,1.6668116574715746
2018-11-05,1.6668116574715746
2018-11-06,1.6668116574715746
2018-11-07,1.6668116574715746
2018-11-08,1.6668116574715746
2018-11-09,1.6668116574715746
2018-11-12,1.6668116574715746
2018-11-13,1.6668116574715746
2018-11-14,1.6668116574715746
2018-11-15,1.6668116574715746
2018-11-16,1.6668116574715746
2018-11-19,1.6668116574715746
2018-11-20,1.6668116574715746
2018-11-21,1.6668116574715746
2018-11-23,1.6668116574715746
2018-11-26,1.6668116574715746
2018-11-27,1.6668116574715746
2018-11-28,1.6668116574715746
2018-11-29,1.6668116574715746
2018-11-30,1.6668116574715746
2018-12-03,1.6668116574715746
2018-12-04,1.6668116574715746
2018-12-06,1.6668116574715746
2018-12-07,1.6668116574715746
2018-12-10,1.6668116574715746
2018-12-11,1.6668116574715746
2018-12-12,1.6668116574715746
2018-12-13,1.6668116574715746
2018-12-14,1.6668116574715746
2018-12-17,1.6668116574715746
2018-12-18,1.6668116574715746
2018-12-19,1.6668116574715746
2018-12-20,1.6668116574715746
2018-12-21,1.6668116574715746
2018-12-24,1.6668116574715746
2018-12-26,1.6668116574715746
2018-12-27,1.6668116574715746
2018-12-28,1.6668116574715746
2018-12-31,1.6668116574715746
2019-01-02,1.6668116574715746
2019-01-03,1.6668116574715746
2019-01-04,1.6668116574715746
2019-01-07,1.6668116574715746
2019-01-08,1.6668116574715746
2019-01-09,1.6668116574715746
2019-01-10,1.6668116574715746
2019-01-11,1.6668116574715746
2019-01-14,1.6668116574715746
2019-01-15,1.6668116574715746
2019-01-16,1.6668116574715746
2019-01-17,1.6668116574715746
2019-01-18,1.6668116574715746
2019-01-22,1.6668116574715746
2019-01-23,1.6668116574715746
2019-01-24,1.6668116574715746
2019-01-25,1.6668116574715746
2019-01-28,1.6668116574715746
2019-01-29,1.6668116574715746
2019-01-30,1.6668116574715746
2019-01-31,1.6668116574715746
2019-02-01,1.6668116574715746
2019-02-04,1.6668116574715746
2019-02-05,1.6668116574715746
2019-02-06,1.6668116574715746
2019-02-07,1.6668116574715746
2019-02-08,1.6668116574715746
2019-02-11,1.6668116574715746
2019-02-12,1.6668116574715746
2019-02-13,1.6668116574715746
2019-02-14,1.6668116574715746
2019-02-15,1.6668116574715746
2019-02-19,1.6607555380370005
2019-02-20,1.6734086879747976
2019-02-21,1.6795424938036216
2019-02-22,1.707117566477573
2019-02-25,1.7230620594696922
2019-02-26,1.6558497899592737
2019-02-27,1.6495855280704252
2019-02-28,1.6444726558417628
2019-03-01,1.6475124865763697
2019-03-04,1.6170872377676644
2019-03-05,1.5907968916242443
2019-03-06,1.589148898921116
2019-03-07,1.601537543131816
2019-03-08,1.620052451388004
2019-03-11,1.6581713526568578
2019-03-12,1.6623916794288376
2019-03-13,1.6780476817747632
2019-03-14,1.7071814130878664
2019-03-15,1.7105848873428158
2019-03-18,1.7458533045338602
2019-03-19,1.759121596373265
2019-03-20,1.7832968208464184
2019-03-21,1.8819991558272746
2019-03-22,1.8174611791985154
2019-03-25,1.831440380522673
2019-03-26,1.8709465435089139
2019-03-27,1.8287401761182231
2019-03-28,1.8464983978989868
2019-03-29,1.8499171230918092
2019-04-01,1.8529240901808002
2019-04-02,1.8356907083413045
2019-04-03,1.8259252376987067
2019-04-04,1.68938439402987
2019-04-05,1.663581307694328
2019-04-08,1.640564957348987
2019-04-09,1.6032770278233375
2019-04-10,1.6203311894483519
2019-04-11,1.6191750040688602
2019-04-12,1.6209093097043887
2019-04-15,1.6167028327511004
2019-04-16,1.596359095490216
2019-04-17,1.5499208011697247
2019-04-18,1.5286463903473217
2019-04-22,1.5626291738819797
2019-04-23,1.5999085640377175
2019-04-24,1.615076087840885
2019-04-25,1.5758895418495404
2019-04-26,1.5965768733679846
2019-04-29,1.5966520914497695
2019-04-30,1.5846960962615664
2019-05-01,1.5631843310403213
2019-05-02,1.6129914048770466
2019-05-03,1.6305895674760182
2019-05-06,1.5979737967449532
2019-05-07,1.548170732172439
2019-05-08,1.5545765100143232
2019-05-09,1.5511092437000262
2019-05-10,1.5915884834400542
2019-05-13,1.5240752273353757
2019-05-14,1.5445176757208967
2019-05-15,1.5457042993001222
2019-05-16,1.5142188593312906
2019-05-17,1.4997993356718142
2019-05-20,1.491217301279689
2019-05-21,1.4963634292407533
2019-05-22,1.5039921882349718
2019-05-23,1.4819550408026596
2019-05-24,1.4893264720713009
2019-05-28,1.5007823929842687
2019-05-29,1.4723137065979075
2019-05-30,1.4872722141853276
2019-05-31,1.4615675814388984
2019-06-03,1.460706677374067
2019-06-04,1.460706677374067
2019-06-05,1.460706677374067
2019-06-06,1.460706677374067
2019-06-07,1.460706677374067
2019-06-10,1.4553922972651119
2019-06-11,1.4157885433233157
2019-06-12,1.4378404539944305
2019-06-13,1.4331121152132806
2019-06-14,1.4232438180760547
2019-06-17,1.421981864936317
2019-06-18,1.4240006391898625
2019-06-19,1.468104947564448
2019-06-20,1.466960272916419
2019-06-21,1.4505525580070502
2019-06-24,1.4173408016327886
2019-06-25,1.3805767927193886
2019-06-26,1.35206482683698
2019-06-27,1.353725655424347
2019-06-28,1.3549856256912207
2019-07-01,1.355310940330802
2019-07-02,1.3795305440704704
2019-07-03,1.389926029303194
2019-07-05,1.3960903526296966
2019-07-08,1.402121167372269
2019-07-09,1.4163286665021129
2019-07-10,1.4017506917141267
2019-07-11,1.394348537283019
2019-07-12,1.3928063355846017
2019-07-15,1.4228951966676004
2019-07-16,1.3961170189438223
2019-07-17,1.4103141508744934
2019-07-18,1.442023946892868
2019-07-19,1.4144321369785982
2019-07-22,1.4367297944806439
2019-07-23,1.4242085557922035
2019-07-24,1.4516658923817822
2019-07-25,1.4510337656925514
2019-07-26,1.4603201649818451
2019-07-29,1.423280824526904
2019-07-30,1.3893994575058706
2019-07-31,1.3827996220051149
2019-08-01,1.438189615723262
2019-08-02,1.4053219678745235
2019-08-05,1.3795953251918633
2019-08-06,1.4093356842048994
2019-08-07,1.4284454865964564
2019-08-08,1.4670863666940699
2019-08-09,1.4928223398666622
2019-08-12,1.4809809523547304
2019-08-13,1.4924999254296258
2019-08-14,1.4516114840253684
2019-08-15,1.4501731060090064
2019-08-16,1.4699567742107242
2019-08-19,1.4769876698238424
2019-08-20,1.5009880981495702
2019-08-21,1.5348607606876006
2019-08-22,1.5327544749135495
2019-08-23,1.5140365528267141
2019-08-26,1.5484540666931177
2019-08-27,1.5702501708320327
2019-08-28,1.548073810772753
2019-08-29,1.5438370646744266
2019-08-30,1.5263590012871187
2019-09-03,1.5239967521489435
2019-09-04,1.519946988317877
2019-09-05,1.533098288469219
2019-09-06,1.5071334977144963
2019-09-09,1.459127350447359
2019-09-10,1.4628225703420181
2019-09-11,1.4783142209340447
2019-09-12,1.4777456485951617
2019-09-13,1.4785982847443393
2019-09-16,1.4855878637345263
2019-09-17,1.5023367532943035
2019-09-18,1.5237083593022809
2019-09-19,1.5105861898625483
2019-09-20,1.4927378282222086
2019-09-23,1.5092317772644446
2019-09-24,1.4884228700377498
2019-09-25,1.5222034939370266
2019-09-26,1.516534508146755
2019-09-27,1.4709547533872955
2019-09-30,1.4779467548821539
2019-10-01,1.4710790481192566
2019-10-02,1.4512892122578922
2019-10-03,1.4623794913835932
2019-10-04,1.4895888041381204
2019-10-07,1.48747833863418
2019-10-08,1.4481979222499364
2019-10-09,1.471491897257264
2019-10-10,1.4734908136095828
2019-10-11,1.4913418957451978
2019-10-14,1.4840345962380934
2019-10-15,1.5108283199771781
2019-10-16,1.4847442983149106
2019-10-17,1.4961030240249782
2019-10-18,1.4832878532170772
2019-10-21,1.5121526550908224
2019-10-22,1.5006415939960167
2019-10-23,1.477677280320509
2019-10-24,1.5790758806045733
2019-10-25,1.5921307770857198
2019-10-28,1.6339471319619174
2019-10-29,1.6041473065863912
2019-10-30,1.619060652718125
2019-10-31,1.5892894034995915
2019-11-01,1.6175261606152471
2019-11-04,1.6251463115379505
2019-11-05,1.6148618439780633
2019-11-06,1.6136019329601905
2019-11-07,1.6085473791438458
2019-11-08,1.6173775120764216
2019-11-11,1.616179961758419
2019-11-12,1.61412355502471
2019-11-13,1.6275605282448224
2019-11-14,1.6330151652835938
2019-11-15,1.6572489754005186
2019-11-18,1.6514205890485636
2019-11-19,1.6368845340143077
2019-11-20,1.6211828704892453
2019-11-21,1.574685878962238
2019-11-22,1.5727868737461934
2019-11-25,1.5603348821842742
2019-11-26,1.5274613687465926
2019-11-27,1.5412358663679249
2019-11-29,1.5329763650112325
2019-12-02,1.535874315900879
2019-12-03,1.5422964329032136
2019-12-04,1.5507842409833943
2019-12-05,1.5433155049240153
2019-12-06,1.5561217795888447
2019-12-09,1.5504990050165888
2019-12-10,1.5819156018437273
2019-12-11,1.5913287287334081
2019-12-12,1.6078676284180813
2019-12-13,1.6049214438287738
2019-12-16,1.6751687841451566
2019-12-17,1.6546635122962434
2019-12-18,1.6918351005028205
2019-12-19,1.7192510252790723
2019-12-20,1.7293541911163421
2019-12-23,1.757448039149423
2019-12-24,1.77615852878958
2019-12-26,1.7856263473906884
2019-12-27,1.7810550950843425
2019-12-30,1.7460559450279924
2019-12-31,1.7581518567326526
2020-01-02,1.780845117704133
2020-01-03,1.8010073050626132
2020-01-06,1.826004630661474
2020-01-07,1.8689902606144693
2020-01-08,1.9415635679490195
2020-01-09,1.9191421656203203
2020-01-10,1.907452486974691
2020-01-13,2.0088316212655584
2020-01-14,2.0572374432865006
2020-01-15,2.019575610907779
2020-01-16,1.9970590987207784
2020-01-17,1.9910212554725901
2020-01-21,2.0432160749781434
2020-01-22,2.0942842328899456
2020-01-23,2.1003136916548883
2020-01-24,2.0834584682071453
2020-01-27,2.0718873055845366
2020-01-28,2.110944452938478
2020-01-29,2.14767409277113
2020-01-30,2.2902080553917314
2020-01-31,2.299769726215239
2020-02-03,2.5996069466959986
2020-02-04,2.8623531761185044
2020-02-05,2.6536839517838318
2020-02-06,2.6507569233193156
2020-02-07,2.6572349640491764
2020-02-10,2.712265596827938
2020-02-11,2.7152684769397313
2020-02-12,2.749045394878905
2020-02-13,2.7829523550803175
2020-02-14,2.785692771747635
2020-02-18,2.8309626836136066
2020-02-19,2.8681574171262807
2020-02-20,2.8338554006302403
2020-02-21,2.6959064228587484
2020-02-24,2.7042498432046957
2020-02-25,2.6427755594365503
2020-02-26,2.6324176358279847
2020-02-27,2.5540217782046946
2020-02-28,2.5540217782046946
2020-03-02,2.5812761448624455
2020-03-03,2.5523804394880374
2020-03-04,2.6411308838762793
2020-03-05,2.607639661767595
2020-03-06,2.5999039628350653
2020-03-09,2.500183733024521
2020-03-10,2.500183733024521
2020-03-11,2.500183733024521
2020-03-12,2.500183733024521
2020-03-13,2.500183733024521
2020-03-16,2.500183733024521
2020-03-17,2.500183733024521
2020-03-18,2.500183733024521
2020-03-19,2.500183733024521
2020-03-20,2.500183733024521
2020-03-23,2.500183733024521
2020-03-24,2.500183733024521
2020-03-25,2.500183733024521
2020-03-26,2.500183733024521
2020-03-27,2.500183733024521
2020-03-30,2.500183733024521
2020-03-31,2.500183733024521
2020-04-01,2.500183733024521
2020-04-02,2.500183733024521
2020-04-03,2.500183733024521
2020-04-06,2.500183733024521
2020-04-07,2.500183733024521
2020-04-08,2.500183733024521
2020-04-09,2.500183733024521
2020-04-13,2.4808451874113486
2020-04-14,2.610710998099739
2020-04-15,2.6987186214529806
2020-04-16,2.7418577577400995
2020-04-17,2.723376178170003
2020-04-20,2.85192735866555
2020-04-21,2.696968557507605
2020-04-22,2.773861504688848
2020-04-23,2.7788814014315864
2020-04-24,2.8700884239787094
2020-04-27,2.9625767185740015
2020-04-28,2.8145505886390616
2020-04-29,2.7944725652172115
2020-04-30,2.768344735793103
2020-05-01,2.797260383388192
2020-05-04,2.9317665173643777
2020-05-05,2.9340970863593636
2020-05-06,2.9780013016342783
2020-05-07,3.0894380628053364
2020-05-08,3.0987220492839826
2020-05-11,3.1460093020880198
2020-05-12,3.134324843298306
2020-05-13,3.1181840974288066
2020-05-14,3.139453089854341
2020-05-15,3.154490841902692
2020-05-18,3.081688892241636
2020-05-19,3.1624219771287185
2020-05-20,3.2501248696963616
2020-05-21,3.2142227050046595
2020-05-22,3.27472304411918
2020-05-26,3.2046624316294694
2020-05-27,3.1364859910734637
2020-05-28,3.1938342499379235
2020-05-29,3.8082575813407966
2020-06-01,4.191984787082384
2020-06-02,4.061753794151383
2020-06-03,4.212057465835427
2020-06-04,4.0812153451030895
2020-06-05,3.9639900621774626
2020-06-08,4.063306672274553
2020-06-09,4.046930295747225
2020-06-10,4.160085486070825
2020-06-11,4.053729164977094
2020-06-12,4.008245647895119
2020-06-15,4.175445692577389
2020-06-16,4.185587811920676
2020-06-17,4.200752488623081
2020-06-18,4.397856742760881
2020-06-19,4.29894069325624
2020-06-22,4.40534318191164
2020-06-23,4.40167715424381
2020-06-24,4.349356116459004
2020-06-25,4.458102553280617
2020-06-26,4.199392446593411
2020-06-29,4.172607523216316
2020-06-30,4.300076125058532
2020-07-01,4.396662443512373
2020-07-02,4.464384144847892
2020-07-06,4.534667710993071
2020-07-07,4.516956380982657
2020-07-08,4.829087651468239
2020-07-09,5.0199221878528135
2020-07-10,4.964967051864861
2020-07-13,4.630975222936628
2020-07-14,4.5536126989539545
2020-07-15,4.503030871338218
2020-07-16,4.450496259195898
2020-07-17,4.51220982280898
2020-07-20,4.831104192610251
2020-07-21,4.683241933789909
2020-07-22,4.710337099320457
2020-07-23,4.565271397959631
2020-07-24,4.348929436558418
2020-07-27,4.554174993833166
2020-07-28,4.457888251479334
2020-07-29,4.539551326683077
2020-07-30,4.568893309007632
2020-07-31,4.5018795247419074
2020-08-03,4.629724541240978
2020-08-04,4.630715032761292
2020-08-05,4.667834785102524
2020-08-06,4.630158861839162
2020-08-07,4.453921553493601
2020-08-10,4.2737408786074225
2020-08-11,4.21303466825915
2020-08-12,4.460874658341501
2020-08-13,4.551892695949292
2020-08-14,4.592716160384082
2020-08-17,4.85612587250578
2020-08-18,4.905394443265402
2020-08-19,4.877561905929605
2020-08-20,5.094349493092338
2020-08-21,5.189831987924867
2020-08-24,5.120086750211996
2020-08-25,5.224838897752733
2020-08-26,5.393929740052718
2020-08-27,5.448932444367507
2020-08-28,5.4634388234966345
2020-08-31,5.994284432722846
2020-09-01,5.872755443392501
2020-09-02,5.384609178451344
2020-09-03,5.1877467115456195
2020-09-04,5.1877467115456195
2020-09-08,5.191520464253538
2020-09-09,5.240902865600711
2020-09-10,5.226724340416873
2020-09-11,5.2013862103615
2020-09-14,5.227821997220419
2020-09-15,5.285113485915037
2020-09-16,5.276228123759268
2020-09-17,5.217263634122432
2020-09-18,5.236928536021656
2020-09-21,5.317575572305778
2020-09-22,5.378749993297067
2020-09-23,5.273531072402649
2020-09-24,5.233952633821394
2020-09-25,5.287356036881114
2020-09-28,5.319161801072887
2020-09-29,5.312339744467364
2020-09-30,5.343107507907668
2020-10-01,5.4112574626671615
2020-10-02,5.350436423737428
2020-10-05,5.421429490559174
2020-10-06,5.416488437056087
2020-10-07,5.463818983466066
2020-10-08,5.448776373970327
2020-10-09,5.485955730959853
2020-10-12,5.516234432762193
2020-10-13,5.584778611487923
2020-10-14,5.506669613609325
2020-10-15,5.459701365942651
2020-10-16,5.463971491985484
2020-10-19,5.437944037669332
2020-10-20,5.422494611220468
2020-10-21,5.321361854029753
2020-10-22,5.281373609968282
2020-10-23,5.281373609968282
2020-10-26,5.245677131296346
2020-10-27,5.243718412254884
2020-10-28,5.189891492716576
2020-10-29,5.2679608449904665
2020-10-30,5.1479912355773285
2020-11-02,5.156140706484065
2020-11-03,5.189813266466078
2020-11-04,5.30905905619895
2020-11-05,5.6029935673848374
2020-11-06,5.647548603250573
2020-11-09,5.46550557493094
2020-11-10,5.411616866453736
2020-11-11,5.49009383183574
2020-11-12,5.450958849323424
2020-11-13,5.454582778260301
2020-11-16,5.530727715007357
2020-11-17,5.509373141460921
2020-11-18,5.504208787402563
2020-11-19,5.517586097147625
2020-11-20,5.455530107720271
2020-11-23,5.522899246072942
2020-11-24,5.613133122106076
2020-11-25,5.568193860180475
2020-11-27,5.561121206671498
2020-11-30,5.536281764794214
2020-12-01,5.576944537958536
2020-12-02,5.520504567327479
2020-12-03,5.519776331534148
2020-12-04,5.599943977670048
2020-12-07,5.57807941448325
2020-12-08,5.608387196685223
2020-12-09,5.511361089321424
2020-12-10,5.503578106986386
2020-12-11,5.383474172178186
2020-12-14,5.4057332024598175
2020-12-15,5.428676814920536
2020-12-16,5.436672778532923
2020-12-17,5.690021579136098
2020-12-18,5.69093842058633
2020-12-21,5.741678944072891
2020-12-22,5.8019578452751785
2020-12-23,5.628050866942601
2020-12-24,5.669889446663065
2020-12-28,5.552153820649746
2020-12-29,5.541049961774249
2020-12-30,5.616296588025621
2020-12-31,5.69344390631457
2021-01-04,5.582505476511244
2021-01-05,5.745748225804652
2021-01-06,5.635290690928858
2021-01-07,5.711830470592636
2021-01-08,5.647155232449423
2021-01-11,5.574240089652775
2021-01-12,5.725351854363712
2021-01-13,5.7582804146298265
2021-01-14,5.781737624743396
2021-01-15,5.700001293577112
2021-01-19,5.941049270126264
2021-01-20,5.883154572325646
2021-01-21,5.923686907874092
2021-01-22,5.82442427527571
2021-01-25,5.894107291267379
2021-01-26,5.833607275352997
2021-01-27,5.626444485117897
2021-01-28,5.535651107285172
2021-01-29,5.403238058247233
2021-02-01,5.529921775265768
2021-02-02,5.692607045605854
2021-02-03,5.6162145970008215
2021-02-04,5.675732241117776
2021-02-05,5.676750475393561
2021-02-08,5.6973403238794464
2021-02-09,5.670395691133772
2021-02-10,5.625664883486596
2021-02-11,5.690842604084752
2021-02-12,5.7971115694166215
2021-02-16,5.7382636102368085
2021-02-17,5.634007556390804
2021-02-18,5.6427199589876516
2021-02-19,5.642088589166557
2021-02-22,5.4208110595729755
2021-02-23,5.218707431528511
2021-02-24,5.218707431528511
2021-02-25,5.218707431528511
2021-02-26,5.218707431528511
2021-03-01,5.233263590662401
2021-03-02,5.131475767463857
2021-03-03,5.08197289622641
2021-03-04,4.946660807895183
2021-03-05,4.9294173248357795
2021-03-08,4.8026535026040085
2021-03-09,4.955088562387483
2021-03-10,4.884138480968278
2021-03-11,4.987675027613404
2021-03-12,4.9345648881255775
2021-03-15,4.956037356551477
2021-03-16,5.031484295249159
2021-03-17,5.093112813282483
2021-03-18,4.96297910725397
2021-03-19,4.978916557051543
2021-03-22,5.03846523598105
2021-03-23,4.924422888379458
2021-03-24,4.975989521376915
2021-03-25,4.960912568725144
2021-03-26,5.0583646868466
2021-03-29,5.0456481857978295
2021-03-30,5.028375089161823
2021-03-31,5.112159746339638
2021-04-01,5.220343438811911
2021-04-05,5.315416321156379
2021-04-06,5.2384802668527275
2021-04-07,5.261279722052792
2021-04-08,5.295075306600242
2021-04-09,5.337913460947706
2021-04-12,5.182975025180933
2021-04-13,5.1765858749375155
2021-04-14,5.118453302600496
2021-04-15,5.121402865089227
2021-04-16,5.1139735512795115
2021-04-19,5.060735003875179
2021-04-20,5.076621380512838
2021-04-21,4.9929745498962355
2021-04-22,4.952625868674513
2021-04-23,4.952625868674513
2021-04-26,4.99656144264339
2021-04-27,4.973978942559283
2021-04-28,4.975137564777419
2021-04-29,4.953708950997084
2021-04-30,4.9095742287201904
2021-05-03,4.919433370928494
2021-05-04,4.790535901542825
2021-05-05,4.7891038009362035
2021-05-06,4.827155452065403
2021-05-07,4.891375118502205
2021-05-10,4.682272196901408
2021-05-11,4.68787382745586
2021-05-12,4.609484202557216
2021-05-13,4.609484202557216
2021-05-14,4.609484202557216
2021-05-17,4.611508378570963
2021-05-18,4.580311863953519
2021-05-19,4.586293229934917
2021-05-20,4.612598726045196
2021-05-21,4.605529326633191
2021-05-24,4.64669707969653
2021-05-25,4.658234631759358
2021-05-26,4.652113247144731
2021-05-27,4.674671762363901
2021-05-28,4.659211209649335
2021-06-01,4.667011436253835
2021-06-02,4.6620333128315945
2021-06-03,4.6446335930697975
2021-06-04,4.6663671714419
2021-06-07,4.6575775848318095
2021-06-08,4.650440078915241
2021-06-09,4.632044314218589
2021-06-10,4.640166543843003
2021-06-11,4.63575608035149
2021-06-14,4.6706089857962905
2021-06-15,4.640716036087504
2021-06-16,4.62269402759885
2021-06-17,4.655051250539369
2021-06-18,4.629875763801561
2021-06-21,4.6120605476716445
2021-06-22,4.6424966528469875
2021-06-23,4.68613710934793
2021-06-24,4.667934054869063
2021-06-25,4.640791258299412
2021-06-28,4.753502464850278
2021-06-29,4.706453961932424
2021-06-30,4.557362421314123
2021-07-01,4.5602777745668455
2021-07-02,4.493579188468338
2021-07-06,4.482291321580641
2021-07-07,4.438421149609882
2021-07-08,4.369744671163772
2021-07-09,4.403279675803928
2021-07-12,4.463506043994888
2021-07-13,4.43109097802399
2021-07-14,4.370376087282754
2021-07-15,4.305972321319645
2021-07-16,4.293844196695302
2021-07-19,4.2782427454518555
2021-07-20,4.316534473484788
2021-07-21,4.345966003687604
2021-07-22,4.378911900278672
2021-07-23,4.462545831065503
2021-07-26,4.474246445950492
2021-07-27,4.443427035784328
2021-07-28,4.463938162497163
2021-07-29,4.4141267141496225
2021-07-30,4.416270727533601
2021-08-02,4.395006112623813
2021-08-03,4.398124545038102
2021-08-04,4.438964592737687
2021-08-05,4.45803320696068
2021-08-06,4.452037265600254
2021-08-09,4.447069944280908
2021-08-10,4.434365412477863
2021-08-11,4.434570461869179
2021-08-12,4.45451804999123
2021-08-13,4.464660987349424
2021-08-16,4.481803770748533
2021-08-17,4.436808352649562
2021-08-18,4.419603965715036
2021-08-19,4.43986669391432
2021-08-20,4.44385671172426
2021-08-23,4.483564458243215
2021-08-24,4.537451197962732
2021-08-25,4.543409327530255
2021-08-26,4.452138605652218
2021-08-27,4.512252215225731
2021-08-30,4.562967133179406
2021-08-31,4.584205726744145
2021-09-01,4.536591432849023
2021-09-02,4.603271245386414
2021-09-03,4.661669253921148
2021-09-07,4.613540392890545
2021-09-08,4.632968298323467
2021-09-09,4.652005540502112
2021-09-10,4.551478925597481
2021-09-13,4.516540255047673
2021-09-14,4.65813048314559
2021-09-15,4.667114292504373
2021-09-16,4.780682642678277
2021-09-17,4.751355069289552
2021-09-20,4.655295429804383
2021-09-21,4.705563107799085
2021-09-22,4.86266248660373
2021-09-23,4.857927216918788
2021-09-24,4.827313285309596
2021-09-27,4.6338382268080185
2021-09-28,4.555724245059597
2021-09-29,4.568290483948404
2021-09-30,4.622800499852012
2021-10-01,4.67951790567858
2021-10-04,4.5101131309240365
2021-10-05,4.610940878052022
2021-10-06,4.669328099505458
2021-10-07,4.665538697396313
2021-10-08,4.574978968845787
2021-10-11,4.615971647079114
2021-10-12,4.719925000382609
2021-10-13,4.9531684871488615
2021-10-14,4.898275743185717
2021-10-15,4.9236389159124005
2021-10-18,5.004273869813817
2021-10-19,5.023340910126647
2021-10-20,5.0299221410739605
2021-10-21,5.077534151241032
2021-10-22,5.091021539827839
2021-10-25,5.112602120279579
2021-10-26,5.108040204444297
2021-10-27,4.983504599254473
2021-10-28,5.066735080816525
2021-10-29,5.211606406146865
2021-11-01,5.122006313384306
2021-11-02,5.1673513038080205
2021-11-03,5.139038601804529
2021-11-04,5.244763458637539
2021-11-05,5.611751111447127
2021-11-08,5.750655291531041
2021-11-09,5.852953490110737
2021-11-10,5.666052579843754
2021-11-11,5.6763304223985465
2021-11-12,5.767885551748856
2021-11-15,5.720927378306088
2021-11-16,5.817792971209247
2021-11-17,5.728859692085829
2021-11-18,5.729047539062609
2021-11-19,5.7680147875295305
2021-11-22,5.42738158482563
2021-11-23,5.260625506314438
2021-11-24,5.260625506314438
2021-11-26,5.260625506314438
2021-11-29,5.416354636404668
2021-11-30,5.300348462652956
2021-12-01,5.045162502152841
2021-12-02,5.12754507137392
2021-12-03,4.8996823674030825
2021-12-06,4.641416519100263
2021-12-07,4.641416519100263
2021-12-08,4.641416519100263
2021-12-09,4.641416519100263
2021-12-10,4.641416519100263
2021-12-13,4.522297476672447
2021-12-14,4.463857968680668
2021-12-15,4.635102918404552
2021-12-16,4.4408686057491025
2021-12-17,4.50455661867813
2021-12-20,4.54504954318967
2021-12-21,4.619878408782597
2021-12-22,4.704519983370963
2021-12-23,4.724057261127692
2021-12-27,4.840194086147251
2021-12-28,4.747572610086229
2021-12-29,4.775142245958843
2021-12-30,4.718861330914162
2021-12-31,4.72137316778541
2022-01-03,4.764011842147176
2022-01-04,4.764505805641948
2022-01-05,4.551377547146691
2022-01-06,4.567554288938533
2022-01-07,4.47871078888904
2022-01-10,4.423622221930572
2022-01-11,4.427261811486217
2022-01-12,4.437946125535837
2022-01-13,4.443933834429976
2022-01-14,4.464362994906722
2022-01-18,4.369756212014122
2022-01-19,4.336059888673074
2022-01-20,4.31129214182134
2022-01-21,4.31129214182134
2022-01-24,4.31129214182134
2022-01-25,4.31129214182134
2022-01-26,4.31129214182134
2022-01-27,4.31129214182134
2022-01-28,4.31129214182134
2022-01-31,4.31129214182134
2022-02-01,4.31129214182134
2022-02-02,4.31129214182134
2022-02-03,4.31129214182134
2022-02-04,4.31129214182134
2022-02-07,4.31129214182134
2022-02-08,4.31129214182134
2022-02-09,4.31129214182134
2022-02-10,4.31129214182134
2022-02-11,4.31129214182134
2022-02-14,4.31129214182134
2022-02-15,4.31129214182134
2022-02-16,4.31129214182134
2022-02-17,4.31129214182134
2022-02-18,4.31129214182134
2022-02-22,4.31129214182134
2022-02-23,4.31129214182134
2022-02-24,4.31129214182134
2022-02-25,4.31129214182134
2022-02-28,4.31129214182134
2022-03-01,4.31129214182134
2022-03-02,4.31129214182134
2022-03-03,4.31129214182134
2022-03-04,4.31129214182134
2022-03-07,4.31129214182134
2022-03-08,4.31129214182134
2022-03-09,4.31129214182134
2022-03-10,4.31129214182134
2022-03-11,4.31129214182134
2022-03-14,4.31129214182134
2022-03-15,4.31129214182134
2022-03-16,4.31129214182134
2022-03-17,4.31129214182134
2022-03-18,4.31129214182134
2022-03-21,4.31129214182134
2022-03-22,4.31129214182134
2022-03-23,4.31129214182134
2022-03-24,4.31129214182134
2022-03-25,4.31129214182134
2022-03-28,4.31129214182134
2022-03-29,4.31129214182134
2022-03-30,4.31129214182134
2022-03-31,4.31129214182134
2022-04-01,4.31129214182134
2022-04-04,4.31129214182134
2022-04-05,4.31129214182134
2022-04-06,4.31129214182134
2022-04-07,4.31129214182134
2022-04-08,4.31129214182134
2022-04-11,4.31129214182134
2022-04-12,4.31129214182134
2022-04-13,4.31129214182134
2022-04-14,4.31129214182134
2022-04-18,4.31129214182134
2022-04-19,4.31129214182134
2022-04-20,4.31129214182134
2022-04-21,4.31129214182134
2022-04-22,4.31129214182134
2022-04-25,4.31129214182134
2022-04-26,4.31129214182134
2022-04-27,4.31129214182134
2022-04-28,4.31129214182134
2022-04-29,4.31129214182134
2022-05-02,4.31129214182134
2022-05-03,4.31129214182134
2022-05-04,4.31129214182134
2022-05-05,4.31129214182134
2022-05-06,4.31129214182134
2022-05-09,4.31129214182134
2022-05-10,4.31129214182134
2022-05-11,4.31129214182134
2022-05-12,4.31129214182134
2022-05-13,4.31129214182134
2022-05-16,4.31129214182134
2022-05-17,4.31129214182134
2022-05-18,4.31129214182134
2022-05-19,4.31129214182134
2022-05-20,4.31129214182134
2022-05-23,4.31129214182134
2022-05-24,4.31129214182134
2022-05-25,4.31129214182134
2022-05-26,4.31129214182134
2022-05-27,4.31129214182134
2022-05-31,4.31129214182134
2022-06-01,4.31129214182134
2022-06-02,4.31129214182134
2022-06-03,4.31129214182134
2022-06-06,4.31129214182134
2022-06-07,4.31129214182134
2022-06-08,4.31129214182134
2022-06-09,4.31129214182134
2022-06-10,4.31129214182134
2022-06-13,4.31129214182134
2022-06-14,4.31129214182134
2022-06-15,4.31129214182134
2022-06-16,4.31129214182134
2022-06-17,4.31129214182134
2022-06-21,4.31129214182134
2022-06-22,4.31129214182134
2022-06-23,4.31129214182134
2022-06-24,4.31129214182134
2022-06-27,4.31129214182134
2022-06-28,4.31129214182134
2022-06-29,4.31129214182134
2022-06-30,4.31129214182134
2022-07-01,4.31129214182134
2022-07-05,4.31129214182134
2022-07-06,4.31129214182134
2022-07-07,4.31129214182134
2022-07-08,4.31129214182134
2022-07-11,4.31129214182134
2022-07-12,4.31129214182134
2022-07-13,4.31129214182134
2022-07-14,4.31129214182134
2022-07-15,4.31129214182134
2022-07-18,4.31129214182134
2022-07-19,4.31129214182134
2022-07-20,4.31129214182134
2022-07-21,4.31129214182134
2022-07-22,4.31129214182134
2022-07-25,4.31129214182134
2022-07-26,4.31129214182134
2022-07-27,4.31129214182134
2022-07-28,4.31129214182134
2022-07-29,4.31129214182134
2022-08-01,4.31129214182134
2022-08-02,4.31129214182134
2022-08-03,4.31129214182134
2022-08-04,4.31129214182134
2022-08-05,4.31129214182134
2022-08-08,4.31129214182134
2022-08-09,4.31129214182134
2022-08-10,4.31129214182134
2022-08-11,4.31129214182134
2022-08-12,4.31129214182134
2022-08-15,4.31129214182134
2022-08-16,4.31129214182134
2022-08-17,4.31129214182134
2022-08-18,4.31129214182134
2022-08-19,4.31129214182134
2022-08-22,4.31129214182134
2022-08-23,4.31129214182134
2022-08-24,4.31129214182134
2022-08-25,4.31129214182134
2022-08-26,4.31129214182134
2022-08-29,4.31129214182134
2022-08-30,4.31129214182134
2022-08-31,4.31129214182134
2022-09-01,4.31129214182134
2022-09-02,4.31129214182134
2022-09-06,4.31129214182134
2022-09-07,4.31129214182134
2022-09-08,4.31129214182134
2022-09-09,4.31129214182134
2022-09-12,4.31129214182134
2022-09-13,4.31129214182134
2022-09-14,4.31129214182134
2022-09-15,4.31129214182134
2022-09-16,4.31129214182134
2022-09-19,4.31129214182134
2022-09-20,4.31129214182134
2022-09-21,4.31129214182134
2022-09-22,4.31129214182134
2022-09-23,4.31129214182134
2022-09-26,4.31129214182134
2022-09-27,4.31129214182134
2022-09-28,4.31129214182134
2022-09-29,4.31129214182134
2022-09-30,4.31129214182134
2022-10-03,4.31129214182134
2022-10-04,4.31129214182134
2022-10-05,4.31129214182134
2022-10-06,4.31129214182134
2022-10-07,4.31129214182134
2022-10-10,4.31129214182134
2022-10-11,4.31129214182134
2022-10-12,4.31129214182134
2022-10-13,4.31129214182134
2022-10-14,4.31129214182134
2022-10-17,4.31129214182134
2022-10-18,4.31129214182134
2022-10-19,4.31129214182134
2022-10-20,4.31129214182134
2022-10-21,4.31129214182134
2022-10-24,4.31129214182134
2022-10-25,4.31129214182134
2022-10-26,4.31129214182134
2022-10-27,4.31129214182134
2022-10-28,4.31129214182134
2022-10-31,4.31129214182134
2022-11-01,4.31129214182134
2022-11-02,4.31129214182134
2022-11-03,4.31129214182134
2022-11-04,4.31129214182134
2022-11-07,4.31129214182134
2022-11-08,4.31129214182134
2022-11-09,4.31129214182134
2022-11-10,4.31129214182134
2022-11-11,4.31129214182134
2022-11-14,4.31129214182134
2022-11-15,4.31129214182134
2022-11-16,4.31129214182134
2022-11-17,4.31129214182134
2022-11-18,4.31129214182134
2022-11-21,4.31129214182134
2022-11-22,4.31129214182134
2022-11-23,4.31129214182134
2022-11-25,4.31129214182134
2022-11-28,4.31129214182134
2022-11-29,4.31129214182134
2022-11-30,4.31129214182134
2022-12-01,4.31129214182134
2022-12-02,4.31129214182134
2022-12-05,4.31129214182134
2022-12-06,4.31129214182134
2022-12-07,4.31129214182134
2022-12-08,4.31129214182134
2022-12-09,4.31129214182134
2022-12-12,4.31129214182134
2022-12-13,4.31129214182134
2022-12-14,4.31129214182134
2022-12-15,4.31129214182134
2022-12-16,4.31129214182134
2022-12-19,4.31129214182134
2022-12-20,4.31129214182134
2022-12-21,4.31129214182134
2022-12-22,4.31129214182134
2022-12-23,4.31129214182134
2022-12-27,4.31129214182134
2022-12-28,4.31129214182134
2022-12-29,4.31129214182134
2022-12-30,4.31129214182134
2023-01-03,4.31129214182134
2023-01-04,4.31129214182134
2023-01-05,4.31129214182134
2023-01-06,4.31129214182134
2023-01-09,4.31129214182134
2023-01-10,4.31129214182134
2023-01-11,4.31129214182134
2023-01-12,4.31129214182134
2023-01-13,4.31129214182134
2023-01-17,4.31129214182134
2023-01-18,4.31129214182134
2023-01-19,4.31129214182134
2023-01-20,4.31129214182134
2023-01-23,4.31129214182134
2023-01-24,4.31129214182134
2023-01-25,4.31129214182134
2023-01-26,4.31129214182134
2023-01-27,4.31129214182134
2023-01-30,4.31129214182134
2023-01-31,4.31129214182134
2023-02-01,4.31129214182134
2023-02-02,4.31129214182134
2023-02-03,4.31129214182134
2023-02-06,4.335181405556881
2023-02-07,4.511745662742431
2023-02-08,4.42041303518228
2023-02-09,4.370412370560677
2023-02-10,4.21577734322334
2023-02-13,4.330982177363576
2023-02-14,4.454127781920442
2023-02-15,4.405869870573222
2023-02-16,4.27237468513046
2023-02-17,4.213844565698439
2023-02-21,4.144299845359313
2023-02-22,4.1332051313561635
2023-02-23,4.131558681676469
2023-02-24,4.131558681676469
2023-02-27,4.110122004391753
2023-02-28,4.130135984382363
2023-03-01,4.098397907517279
2023-03-02,4.131948614625585
2023-03-03,4.221503869084566
2023-03-06,4.20473870439511
2023-03-07,4.190960370029952
2023-03-08,4.232698867731497
2023-03-09,4.18047340286371
2023-03-10,4.146816169543598
2023-03-13,4.155213063719522
2023-03-14,4.281933720814308
2023-03-15,4.311550176754731
2023-03-16,4.412002361475533
2023-03-17,4.36402593964237
2023-03-20,4.384883996314138
2023-03-21,4.424074745654948
2023-03-22,4.421692909462902
2023-03-23,4.480110016693781
2023-03-24,4.472524340939162
2023-03-27,4.442650985578735
2023-03-28,4.424389718531309
2023-03-29,4.477505289445309
2023-03-30,4.509882851044532
2023-03-31,4.551717250075531
2023-04-03,4.566713003975099
2023-04-04,4.554282263075501
2023-04-05,4.509847414407933
2023-04-06,4.544419209333963
2023-04-10,4.559962032950397
2023-04-11,4.536659205111566
2023-04-12,4.508144096993361
2023-04-13,4.544907047488861
2023-04-14,4.564632806437045
2023-04-17,4.559477545637592
2023-04-18,4.582672041075554
2023-04-19,4.5810337394249165
2023-04-20,4.52913507091689
2023-04-21,4.528707877333789
2023-04-24,4.52474632348452
2023-04-25,4.4582982770457935
2023-04-26,4.5006212395680425
2023-04-27,4.687638314760795
2023-04-28,4.721041103193031
2023-05-01,4.78889899271652
2023-05-02,4.734670987309574
2023-05-03,4.7035834395953
2023-05-04,4.672015538919707
2023-05-05,4.716363201652974
2023-05-08,4.739864530664225
2023-05-09,4.7151514486346
2023-05-10,4.727113511977033
2023-05-11,4.729999704750526
2023-05-12,4.707713862992579
2023-05-15,4.7648152200357865
2023-05-16,4.775922482613076
2023-05-17,4.840093893491119
2023-05-18,4.931761326447246
2023-05-19,4.906420947186102
2023-05-22,4.918685475052525
2023-05-23,4.887891893097205
2023-05-24,4.896189059597297
2023-05-25,5.241903453737511
2023-05-26,5.340251887408887
2023-05-30,5.393982078121649
2023-05-31,5.307824459653874
2023-06-01,5.439733652632149
2023-06-02,5.4203989885897474
2023-06-05,5.406259234468847
2023-06-06,5.382072483188057
2023-06-07,5.285594016065477
2023-06-08,5.336659954823407
2023-06-09,5.350232709647049
2023-06-12,5.417967894791651
2023-06-13,5.486810256435828
2023-06-14,5.585215708377958
2023-06-15,5.621160024113201
2023-06-16,5.617874433122621
2023-06-20,5.6865976936536935
2023-06-21,5.637128207851008
2023-06-22,5.655725912869783
2023-06-23,5.643244390790735
2023-06-26,5.5127538150468425
2023-06-27,5.618613240021864
2023-06-28,5.5749074232101155
2023-06-29,5.539435477713058
2023-06-30,5.636787209241573
2023-07-03,5.635862909938959
2023-07-05,5.681851819072803
2023-07-06,5.658207865156337
2023-07-07,5.66689402544208
2023-07-10,5.674248873127793
2023-07-11,5.709249275063357
2023-07-12,5.840995322597144
2023-07-13,5.95602541700093
2023-07-14,5.9065685914043495
2023-07-17,5.960384583579729
2023-07-18,6.014067679142451
2023-07-19,6.019663235978875
2023-07-20,5.870635543208557
2023-07-21,5.768139160582375
2023-07-24,5.761232727290182
2023-07-25,5.807806358251767
2023-07-26,5.797898067804969
2023-07-27,5.81745286053355
2023-07-28,5.854554459110727
2023-07-31,5.811013724894056
2023-08-01,5.864998011210364
2023-08-02,5.610527578146954
2023-08-03,5.635240064611345
2023-08-04,5.7898803402022585
2023-08-07,5.9548140936640435
2023-08-08,5.8705003842198815
2023-08-09,5.350564869085769
2023-08-10,5.350564869085769
2023-08-11,5.350564869085769
2023-08-14,5.411941639679795
2023-08-15,5.393645105878337
2023-08-16,5.371263197731122
2023-08-17,5.293600555267913
2023-08-18,5.285464812927481
2023-08-21,5.309947742749264
2023-08-22,5.335470177072596
2023-08-23,5.3701668347398215
2023-08-24,5.309692685434388
2023-08-25,5.325272109961353
2023-08-28,5.352028859016376
2023-08-29,5.403884675860629
2023-08-30,5.446966482992687
2023-08-31,5.439378511405062
2023-09-01,5.442164697261476
2023-09-05,5.391561648414645
2023-09-06,5.330017289290087
2023-09-07,5.338725890618983
2023-09-08,5.32618548344414
2023-09-11,5.3266809723493775
2023-09-12,5.286301653499521
2023-09-13,5.235667926509443
2023-09-14,5.32540721543059
2023-09-15,5.286926383059484
2023-09-18,5.313498127112623
2023-09-19,5.138652681744778
2023-09-20,5.111023966793258
2023-09-21,5.111023966793258
2023-09-22,5.111023966793258
2023-09-25,5.092149583739895
2023-09-26,5.106980957061467
2023-09-27,5.126898484518478
2023-09-28,5.15312807207599
2023-09-29,5.160100371766798
2023-10-02,5.165446323405898
2023-10-03,5.079836978488977
2023-10-04,5.100994385467951
2023-10-05,5.099275108848724
2023-10-06,5.1106899483187505
2023-10-09,5.2074069583140865
2023-10-10,5.2355103003394365
2023-10-11,5.357972135443032
2023-10-12,5.355262389086918
2023-10-13,5.3240446624182916
2023-10-16,5.3656481665850775
2023-10-17,5.346200525221918
2023-10-18,5.351630329006965
2023-10-19,5.2898975530217065
2023-10-20,5.164848747141674
2023-10-23,5.160010766579328
2023-10-24,5.202096551526543
2023-10-25,5.128534516914851
2023-10-26,5.08936199031648
2023-10-27,5.092835989977672
2023-10-30,5.118317192001232
2023-10-31,5.137266562770698
2023-11-01,5.160414520151864
2023-11-02,5.198240011173315
2023-11-03,5.231399568040976
2023-11-06,5.222414596409209
2023-11-07,5.269489132580791
2023-11-08,5.269613953118025
2023-11-09,5.244059489339493
2023-11-10,5.302772154798369
2023-11-13,5.348707637673282
2023-11-14,5.39996113807731
2023-11-15,5.389769736564441
2023-11-16,5.33501322151996
2023-11-17,5.35572696579289
2023-11-20,5.450017958484001
2023-11-21,5.259245168788535
2023-11-22,5.249590473199406
2023-11-24,5.193681282016732
2023-11-27,5.173766604943861
2023-11-28,5.272313311646387
2023-11-29,5.451450804299387
2023-11-30,5.497447772286488
2023-12-01,5.511615957144516
2023-12-04,5.339059158049067
2023-12-05,5.350664777185531
2023-12-06,5.35397014879411
2023-12-07,5.359479138835304
2023-12-08,5.376961036431846
2023-12-11,5.450067041903475
2023-12-12,5.473034388417221
2023-12-13,5.4658955393685655
2023-12-14,5.493756740355631
2023-12-15,5.5201449914578795
2023-12-18,5.512407447120315
2023-12-19,5.518652242042141
2023-12-20,5.423553903354613
2023-12-21,5.482392556892622
2023-12-22,5.480903596169789
2023-12-26,5.509155681315941
2023-12-27,5.561923981745989
2023-12-28,5.547065256681597
2023-12-29,5.472508788619552
2024-01-02,5.28177502746987
2024-01-03,5.243917168777819
2024-01-04,5.243917168777819
2024-01-05,5.243917168777819
2024-01-08,5.3526360209484665
2024-01-09,5.410171196253045
2024-01-10,5.396721400205852
2024-01-11,5.38700788031232
2024-01-12,5.359734603594998
2024-01-16,5.65201364307315
2024-01-17,5.584692552465855
2024-01-18,5.69558366252676
2024-01-19,5.981254862551069
2024-01-22,5.944442112209559
2024-01-23,5.935880765714115
2024-01-24,6.14850233373984
2024-01-25,6.122607264244602
2024-01-26,6.035510711995135
2024-01-29,6.143569707241111
2024-01-30,6.042166086295725
2024-01-31,5.877479915437535
2024-02-01,5.994069695873694
2024-02-02,6.167609331912349
2024-02-05,6.093400449118928
2024-02-06,5.971214905129753
2024-02-07,6.175432926360768
2024-02-08,6.195094406697953
2024-02-09,6.312686119892869
2024-02-12,6.226492758057908
2024-02-13,6.230373087562246
2024-02-14,6.4777708328904495
2024-02-15,6.411782154998965
2024-02-16,6.337713127440567
2024-02-20,6.133012167386485
2024-02-21,5.881406869366675
2024-02-22,6.20961883382369
2024-02-23,6.109866417338554
2024-02-26,6.078884594318348
2024-02-27,6.102260302278594
2024-02-28,6.038358555175908
2024-02-29,6.388187777320888
2024-03-01,6.688800796126757
2024-03-04,6.843992340921431
2024-03-05,6.8654923284996165
2024-03-06,7.064785415156878
2024-03-07,7.218858972094576
2024-03-08,6.962902402380967
2024-03-11,6.73288259641885
2024-03-12,7.031156763443586
2024-03-13,6.835969217011398
2024-03-14,6.732077428207488
2024-03-15,6.728301411105122
2024-03-18,6.75011082600064
2024-03-19,6.783388643555924
2024-03-20,6.817760177986117
2024-03-21,6.855272511688373
2024-03-22,6.955987941952367
2024-03-25,7.078996970494006
2024-03-26,6.918609766380679
2024-03-27,6.727408297498138
2024-03-28,6.748850321531353
2024-04-01,6.745163436286977
2024-04-02,6.741532989125045
2024-04-03,6.878704339078545
2024-04-04,6.76682003034758
2024-04-05,6.9401102247448945
2024-04-08,7.069278338561608
2024-04-09,6.972249237695773
2024-04-10,6.963398723984815
2024-04-11,7.056820729793145
2024-04-12,6.925538422358126
2024-04-15,6.690603128920639
2024-04-16,6.6558369419628525
2024-04-17,6.580317399303873
2024-04-18,6.519235590371483
2024-04-19,6.499027082532978
2024-04-22,6.539973607175423
2024-04-23,6.581337945784046
2024-04-24,6.602787254547552
2024-04-25,6.499027082532978
2024-04-26,6.499027082532978
2024-04-29,6.549276471156085
2024-04-30,6.327674024311971
2024-05-01,6.183593355168935
2024-05-02,6.3057186711187985
2024-05-03,6.422028284553799
2024-05-06,6.595910883201265
2024-05-07,6.5522874684747086
2024-05-08,6.409191239887509
2024-05-09,6.830336268073467
2024-05-10,6.946938596060931
2024-05-13,6.962111987041903
2024-05-14,6.86384070096598
2024-05-15,7.0037906047795495
2024-05-16,6.957373455225744
2024-05-17,6.859832670863008
2024-05-20,7.031747087016591
2024-05-21,7.027018131910994
2024-05-22,6.8331364578275675
2024-05-23,7.103330137274684
2024-05-24,7.3241256043691205
2024-05-28,7.6271679030714665
2024-05-29,7.688362203061582
2024-05-30,7.477943631179524
2024-05-31,7.402598308130276
2024-06-03,7.641126197868033
2024-06-04,7.642960345186419
2024-06-05,7.939522399498019
2024-06-06,7.8704152166626375
2024-06-07,7.807595433489541
2024-06-10,7.770067031459802
2024-06-11,7.592734236933618
2024-06-12,7.739784296324885
2024-06-13,7.8909476349424
2024-06-14,7.968757450418114
2024-06-17,7.993214166068409
2024-06-18,8.10041084390595
2024-06-20,7.805688995902097
2024-06-21,7.515922607875671
2024-06-24,7.307184561314918
2024-06-25,7.307184561314918
2024-06-26,7.307184561314918
2024-06-27,7.307184561314918
2024-06-28,7.307184561314918
2024-07-01,7.396892931853486
2024-07-02,7.281330550234911
2024-07-03,7.467534288499019
2024-07-05,7.41874426030661
2024-07-08,7.498641535826042
2024-07-09,7.546939043949134
2024-07-10,7.543005129407881
2024-07-11,7.282654973598877
2024-07-12,7.3455428756698495
2024-07-15,7.379242123689627
2024-07-16,7.238794150699752
2024-07-17,7.069520501191377
2024-07-18,7.069520501191377
2024-07-19,7.069520501191377
2024-07-22,7.093638350067112
2024-07-23,7.077894021248298
2024-07-24,6.715091453260239
2024-07-25,6.673549189604482
2024-07-26,6.673549189604482
2024-07-29,6.636651247265416
2024-07-30,6.597515614060006
2024-07-31,6.624949463862038
2024-08-01,6.591196278870364
2024-08-02,6.472893183703828
2024-08-05,6.385988903321215
2024-08-06,6.391158388773123
2024-08-07,6.325324772923455
2024-08-08,6.358759486373003
2024-08-09,6.318175324097007
2024-08-12,6.260227755152416
2024-08-13,6.333780563416665
2024-08-14,6.368994434320407
2024-08-15,6.384686715060473
2024-08-16,6.417814067710037
2024-08-19,6.453831948272901
2024-08-20,6.450742120042925
2024-08-21,6.470219562270367
2024-08-22,6.454039370012401
2024-08-23,6.463972768853392
2024-08-26,6.420461883340504
2024-08-27,6.420780927593624
2024-08-28,6.4285224868847255
2024-08-29,6.480653422748533
2024-08-30,6.496252909696933
2024-09-03,6.460326399663501
2024-09-04,6.392368526296795
2024-09-05,6.384798402496897
2024-09-06,6.383747052683638
2024-09-09,6.414004738309937
2024-09-10,6.489409664381116
2024-09-11,6.508200671223329
2024-09-12,6.546373123968411
2024-09-13,6.526602308282382
2024-09-16,6.533805497060036
2024-09-17,6.513155326415185
2024-09-18,6.493281540630197
2024-09-19,6.514627228842578
2024-09-20,6.484987908329316
2024-09-23,6.491853539744371
2024-09-24,6.49008848475186
2024-09-25,6.4471983841545395
2024-09-26,6.416799837918995
2024-09-27,6.428897619609291
2024-09-30,6.510299273263474
2024-10-01,6.514938772127939
2024-10-02,6.549790194877998
2024-10-03,6.635607473692195
2024-10-04,6.755526648699719
2024-10-07,6.759429975709468
2024-10-08,6.865594247820045
2024-10-09,6.882564385940357
2024-10-10,6.887610490733088
2024-10-11,6.947923123199805
2024-10-14,6.90725511661268
2024-10-15,6.886093058226624
2024-10-16,6.932009855149946
2024-10-17,6.898389893044541
2024-10-18,6.940686118741356
2024-10-21,7.274641961336346
2024-10-22,7.316848815714968
2024-10-23,7.308436759703611
2024-10-24,7.331266538877756
2024-10-25,7.402136284266881
2024-10-28,7.5116964482194515
2024-10-29,7.649674899448053
2024-10-30,7.63928092209113
2024-10-31,7.593643207729114
2024-11-01,7.460785668733406
2024-11-04,7.356533552335211
2024-11-05,7.517387516443939
2024-11-06,7.633414391736791
2024-11-07,9.728061186235157
2024-11-08,10.794272320201188
2024-11-11,10.713922485869356
2024-11-12,10.722485729222733
2024-11-13,10.543451572282128
2024-11-14,10.556792225005065
2024-11-15,10.722921644233292
2024-11-18,10.705405038989419
2024-11-19,11.379093567027077
2024-11-20,11.4355477537564
2024-11-21,11.220098841393217
2024-11-22,11.755829738941808
2024-11-25,11.426174906204048
2024-11-26,11.739432572810228
2024-11-27,11.725191653966917
2024-11-29,11.985220695005811
2024-12-02,12.045784655801814
2024-12-03,12.938275925727604
2024-12-04,13.060187474033565
2024-12-05,13.301019502224941
2024-12-06,14.099425650288957
2024-12-09,12.410384944846733
2024-12-10,12.328260657735147
2024-12-11,12.41300052814433
2024-12-12,12.44909310334289
2024-12-13,12.599218565372189
2024-12-16,12.894368798458075
2024-12-17,13.062728110574021
2024-12-18,12.360692054848236
2024-12-19,12.501924773114897
2024-12-20,12.833560701334758
2024-12-23,12.789451798985052
2024-12-24,12.822634637573973
2024-12-26,12.900571919327769
2024-12-27,12.527023857381808
2024-12-30,12.431515695616707
2024-12-31,12.137137432777697
2025-01-02,12.445613836356253
2025-01-03,12.855270140993014
2025-01-06,12.726646318000178
2025-01-07,11.956154829411226
2025-01-08,11.917411887081172
2025-01-10,11.719440258553906
2025-01-13,11.74903214639429
2025-01-14,11.850231390317255
2025-01-15,12.128316470048794
2025-01-16,12.113324659397914
2025-01-17,12.489408684682864
2025-01-21,12.391168664548418
2025-01-22,12.858923466555492
2025-01-23,12.895635712046484
2025-01-24,12.853694848830251
2025-01-27,12.172632316472153
2025-01-28,12.500061304259102
2025-01-29,12.603294564749447
2025-01-30,12.587966787262832
2025-01-31,12.663313941563604
2025-02-03,12.726157088724591
2025-02-04,13.77500987799009
2025-02-05,13.45828021191032
2025-02-06,14.069297740483748
2025-02-07,13.962030865426367
2025-02-10,14.346119296685185
2025-02-11,14.02164598294478
2025-02-12,14.299324646597295
2025-02-13,16.006395079956842
2025-02-14,16.764885714294987
2025-02-18,16.714611593808797
2025-02-19,16.19619383426506
2025-02-20,14.666743491019277
2025-02-21,14.666743491019277
2025-02-24,14.65419085470137
2025-02-25,14.35692795139214
2025-02-26,14.226741186288699
2025-02-27,14.226741186288699
2025-02-28,14.226741186288699
2025-03-03,14.24148444216599
2025-03-04,14.100108180994194
2025-03-05,14.078436230442506
2025-03-06,14.097010278898445
2025-03-07,14.139421889666654
2025-03-10,14.126729533332412
2025-03-11,14.126729533332412
2025-03-12,14.126729533332412
2025-03-13,14.126729533332412
2025-03-14,14.126729533332412
2025-03-17,14.126729533332412
2025-03-18,14.126729533332412
2025-03-19,14.126729533332412
2025-03-20,14.126729533332412
2025-03-21,14.126729533332412
2025-03-24,14.126729533332412
2025-03-25,14.126729533332412
2025-03-26,14.126729533332412
2025-03-27,14.126729533332412
2025-03-28,14.126729533332412
2025-03-31,14.126729533332412
2025-04-01,14.126729533332412
2025-04-02,14.126729533332412
2025-04-03,14.126729533332412
2025-04-04,14.126729533332412
2025-04-07,14.126729533332412
2025-04-08,14.126729533332412
2025-04-09,14.126729533332412
2025-04-10,14.126729533332412
2025-04-11,14.126729533332412
2025-04-14,14.126729533332412
2025-04-15,14.126729533332412
2025-04-16,14.126729533332412
2025-04-17,14.126729533332412
2025-04-21,14.126729533332412
2025-04-22,14.126729533332412
2025-04-23,14.126729533332412
2025-04-24,14.126729533332412
2025-04-25,14.126729533332412
2025-04-28,14.126729533332412
2025-04-29,14.126729533332412
2025-04-30,14.126729533332412
2025-05-01,14.126729533332412
2025-05-02,14.126729533332412
2025-05-05,14.126729533332412
2025-05-06,14.126729533332412
2025-05-07,14.126729533332412
2025-05-08,14.126729533332412
2025-05-09,14.126729533332412
2025-05-12,14.126729533332412
2025-05-13,14.126729533332412
2025-05-14,14.126729533332412
2025-05-15,14.126729533332412
2025-05-16,14.126729533332412
2025-05-19,14.228705136065216
2025-05-20,14.189153239351512
2025-05-21,13.967850521687092
2025-05-22,14.075782227827803
2025-05-23,13.864187717829779
2025-05-27,13.998598676115861
2025-05-28,14.007317974406593
2025-05-29,13.911440591685466
2025-05-30,14.496053175763995
2025-06-02,14.59349647495874
2025-06-03,14.681693924828028
2025-06-04,14.425080756771237
2025-06-05,13.874402191789613
2025-06-06,13.918096409790774
2025-06-09,13.869860295853957
2025-06-10,13.912503580529178
2025-06-11,14.112262193035194
2025-06-12,13.99682002825132
2025-06-13,13.853937302731854
2025-06-16,14.184169460862057
2025-06-17,13.831943150775956
2025-06-18,13.809177168372752
2025-06-20,13.658525068001097
2025-06-23,13.962499297654912
2025-06-24,14.111067471030754
2025-06-25,14.160836594987323
2025-06-26,14.273664221095316
2025-06-27,13.537100825777808
2025-06-30,13.826291053915533
2025-07-01,13.283593829435755
2025-07-02,13.365149879688005
2025-07-03,13.49201494276901
2025-07-07,13.690295767635725
2025-07-08,13.779756166544171
2025-07-09,14.006226706472546
2025-07-10,13.96277353546198
2025-07-11,13.828795549185408
2025-07-14,14.195985786532745
2025-07-15,14.30611825929466
2025-07-16,14.597042246680978
2025-07-17,14.958274442348182
2025-07-18,14.848914996992134
2025-07-21,14.703044620889955
2025-07-22,14.412849511010045
2025-07-23,14.822772277026681
2025-07-24,14.859116032280111
2025-07-25,15.139679035711973
2025-07-28,15.152513114872669
2025-07-29,15.116545188179723
2025-07-30,15.266317872860668
2025-07-31,15.331074140183699
2025-08-01,14.865567148074055
2025-08-04,15.430812617470474
2025-08-05,16.22372187753241
2025-08-06,16.597884555947378
2025-08-07,16.572023347567573
2025-08-08,16.858160356338246
2025-08-11,16.681698586966505
2025-08-12,16.954253768383168
2025-08-13,16.56429403780639
2025-08-14,16.394120723587527
2025-08-15,16.259313300081477
2025-08-18,16.10128409895795
2025-08-19,15.440827079407269
2025-08-20,15.440827079407269
2025-08-21,15.440827079407269
2025-08-22,15.440827079407269
2025-08-25,15.610767149599148
2025-08-26,15.955337370360668
2025-08-27,15.790634328577847
2025-08-28,16.246031374943968
2025-08-29,16.141292393817267
2025-09-02,16.073482096586584
2025-09-03,16.23675131094346
2025-09-04,16.728455620013328
2025-09-05,16.649448841864455
2025-09-08,17.612493285312624
2025-09-09,17.65516329843018
2025-09-10,17.74408001364437
2025-09-11,17.972780509005865
2025-09-12,18.06971830988715
2025-09-15,18.51243426755626
2025-09-16,18.662051990872904
2025-09-17,18.74840188955805
2025-09-18,19.241537092130216
2025-09-19,19.799002907743024
2025-09-22,19.901751756291997
2025-09-23,19.64257944424749
2025-09-24,19.41932465194427
2025-09-25,19.09263757373625
2025-09-26,19.61779425365462
2025-09-29,20.353885856635664
2025-09-30,20.25016499386542
2025-10-01,20.541824852744007
2025-10-02,20.493389103188882
2025-10-03,20.37077731767707
2025-10-06,19.734773524529725
2025-10-07,19.86704020210167
2025-10-08,19.926332850957245
2025-10-09,20.010709914404664
2025-10-10,19.68460295548722
2025-10-13,19.709351236221792
2025-10-14,19.421461437133765
2025-10-15,20.68557404378538
2025-10-16,20.43415612220347
2025-10-17,20.406718492683694
2025-10-20,20.989894764526177
2025-10-21,20.881280488748068
2025-10-22,20.25870393340638
2025-10-23,20.754413491154196
2025-10-24,21.583847461609707
2025-10-27,22.173137667394315
2025-10-28,22.552692742576653
2025-10-29,22.792077889829308
2025-10-30,22.098463589738273
2025-10-31,22.11695468618519
2025-11-03,22.16312004692422
2025-11-04,21.170404501755513
2025-11-05,21.759192858862974
2025-11-06,20.66583786570714
2025-11-07,20.579598255671826
2025-11-10,20.87613580665553
2025-11-11,20.235806966499084
2025-11-12,20.396756834182305
2025-11-13,19.688788434144588
2025-11-14,20.10242123338586
2025-11-17,19.751266740027503
2025-11-18,19.16317038598336
2025-11-19,18.722527727464318
2025-11-20,18.60613911433734
2025-11-21,18.60613911433734
2025-11-24,18.73222731309626
2025-11-25,18.963420568043308
2025-11-26,18.894636547944238
2025-11-28,18.870988909109293
2025-12-01,18.6075678018858
2025-12-02,18.57162281685075
2025-12-03,18.516405703107583
2025-12-04,18.481023886184648
2025-12-05,18.508383550003693
2025-12-08,18.34253295128775
2025-12-09,18.392798865824716
2025-12-10,18.43962453807865
2025-12-11,18.323233786012892
2025-12-12,18.2762591736548
2025-12-15,18.222724847276815
2025-12-16,18.155823368492364
2025-12-17,17.89698397861296
2025-12-18,17.987846419687756
2025-12-19,18.03840276327953
2025-12-22,18.065237100304756
2025-12-23,18.07595455836546
2025-12-24,18.426372882615457
2025-12-26,18.383945338660123
2025-12-29,18.721505451330444
2025-12-30,18.61099796023926
2025-12-31,18.322719640662008
2026-01-02,19.512156286275268
2026-01-05,19.67345787123684
2026-01-06,20.90119432820775
2026-01-07,20.707904528013437
2026-01-08,20.1139950808589
2026-01-09,21.045391953751434
2026-01-12,21.176224739609726
2026-01-13,20.881509346696415
2026-01-14,20.673158584317473
2026-01-15,21.079248940675143
2026-01-16,22.072636449205135
2026-01-20,21.993801890835925
2026-01-21,22.90536208784987
2026-01-22,23.07075665830683
2026-01-23,23.20093510275338
2026-01-26,22.80428923003254
2026-01-27,23.72729869975479
2026-01-28,24.617726166398164
2026-01-29,24.714176354044838
2026-01-30,23.698783364145154
2026-02-02,24.555206083781734
2026-02-03,23.78474394697873
2026-02-04,22.001263621966388
2026-02-05,22.001263621966388
2026-02-06,22.001263621966388
2026-02-09,22.048348162864837
2026-02-10,21.8361256488932
2026-02-11,22.57640395122089
2026-02-12,22.536862911748006
2026-02-13,22.60532293422355
2026-02-17,22.43487801939809
2026-02-18,22.84906883557828
2026-02-19,22.732206812543623
2026-02-20,23.069391082783753
2026-02-23,22.90171674205606
2026-02-24,22.906504874281374
2026-02-25,23.19090410737019
2026-02-26,22.746694431321387
2026-02-27,22.576191954597512
2026-03-02,22.463319956983412
2026-03-03,22.001263621966388
2026-03-04,22.001263621966388
2026-03-05,22.001263621966388
2026-03-06,22.001263621966388
2026-03-09,22.38907048982377
2026-03-10,22.367954022683456
2026-03-11,22.522486649868906
2026-03-12,21.90515863864369
2026-03-13,21.789834361621025
2026-03-16,21.635808481368457
2026-03-17,21.87875835226173
2026-03-18,21.87924724877881
2026-03-19,21.665978729210885
2026-03-20,21.404951247667704
2026-03-23,21.444648833535936
2026-03-24,21.444648833535936
2026-03-25,21.444648833535936
2026-03-26,21.444648833535936
2026-03-27,21.444648833535936
2026-03-30,21.444648833535936
2026-03-31,21.444648833535936
2026-04-01,21.444648833535936
2026-04-02,21.444648833535936
2026-04-06,21.444648833535936
2026-04-07,21.444648833535936
2026-04-08,21.444648833535936
2026-04-09,21.444648833535936
2026-04-10,21.444648833535936
2026-04-13,22.071692180124703
2026-04-14,22.044170443304193
2026-04-15,22.302552084868946
2026-04-16,22.81496435239803
2026-04-17,23.336355198055948
2026-04-20,23.525884351492454
2026-04-21,23.90872143537068
2026-04-22,24.23382133164264
2026-04-23,25.173992696562852
2026-04-24,27.788525703925202
2026-04-27,27.707763555333432
2026-04-28,27.21587328895902
2026-04-29,29.255481716930515
2026-04-30,29.916759117411964
2026-05-01,30.786601599628792
2026-05-04,30.01800854233747
2026-05-05,32.57100968182548
2026-05-06,33.68956283730597
2026-05-07,32.103459856481635
2026-05-08,35.57667756772511
2026-05-11,36.4146806786226
2026-05-12,34.36899452110923
2026-05-13,35.423417727530406
2026-05-14,35.05354711391577
2026-05-15,33.364117058098586
2026-05-18,32.372906057921654
2026-05-19,32.70563887163365
2026-05-20,34.892389121314906
