Date,Value
2018-01-02,1.0
2018-01-03,1.0
2018-01-04,1.0
2018-01-05,1.0
2018-01-08,1.0243276923826676
2018-01-09,1.02299762261486
2018-01-10,1.0174173973635758
2018-01-11,1.0211812661577055
2018-01-12,1.0218670095042373
2018-01-16,1.0110189039761224
2018-01-17,1.0082068621852474
2018-01-18,1.0097510140286383
2018-01-19,1.0154539088133494
2018-01-22,1.0384294248288282
2018-01-23,1.056559159616182
2018-01-24,1.0549172841385075
2018-01-25,1.0694383991263074
2018-01-26,1.1117660361505435
2018-01-29,1.1304885180207598
2018-01-30,1.1321570393311258
2018-01-31,1.1382090110813616
2018-02-01,1.1024881411216332
2018-02-02,1.101784245495565
2018-02-05,1.0644420644997523
2018-02-06,1.0644420644997523
2018-02-07,1.0644420644997523
2018-02-08,1.0644420644997523
2018-02-09,1.0644420644997523
2018-02-12,1.0805881872131309
2018-02-13,1.0768684353017555
2018-02-14,1.109846452272739
2018-02-15,1.1257488444031936
2018-02-16,1.1229954135392304
2018-02-20,1.1343578100840623
2018-02-21,1.1156624097766592
2018-02-22,1.115364265530246
2018-02-23,1.1296721219671584
2018-02-26,1.136782615817519
2018-02-27,1.1360358700921425
2018-02-28,1.1380355669835707
2018-03-01,1.1340555092393316
2018-03-02,1.145090327080255
2018-03-05,1.1652951835220646
2018-03-06,1.180872730803978
2018-03-07,1.1812711666604763
2018-03-08,1.184930890560491
2018-03-09,1.2039478983545966
2018-03-12,1.1910662289933622
2018-03-13,1.179238092669196
2018-03-14,1.1872294171371158
2018-03-15,1.1892475124229036
2018-03-16,1.1860511504692353
2018-03-19,1.177352602163445
2018-03-20,1.197760525871272
2018-03-21,1.1886769551528689
2018-03-22,1.1698300385423053
2018-03-23,1.1550434629624378
2018-03-26,1.1532183528727604
2018-03-27,1.1406248884052623
2018-03-28,1.1346689826043956
2018-03-29,1.1346689826043956
2018-04-02,1.1197513389762848
2018-04-03,1.1309740123772953
2018-04-04,1.1399675247064256
2018-04-05,1.1533939155026678
2018-04-06,1.1406330091076127
2018-04-09,1.1354722220152937
2018-04-10,1.1431775271163138
2018-04-11,1.1425125252204436
2018-04-12,1.1569040172484715
2018-04-13,1.147297982995916
2018-04-16,1.152846482483607
2018-04-17,1.163642375025347
2018-04-18,1.1649249581349461
2018-04-19,1.156587577260432
2018-04-20,1.15287961865271
2018-04-23,1.1508352544837055
2018-04-24,1.1511796407758539
2018-04-25,1.1496605878650183
2018-04-26,1.1638063449118803
2018-04-27,1.1600957534624858
2018-04-30,1.1544512758636687
2018-05-01,1.1569890866620545
2018-05-02,1.161040124242685
2018-05-03,1.1558857079175344
2018-05-04,1.1589436938046453
2018-05-07,1.171654134328429
2018-05-08,1.1779285378062085
2018-05-09,1.1916579837653534
2018-05-10,1.1892610884934414
2018-05-11,1.1779572808384398
2018-05-14,1.1782054711142425
2018-05-15,1.1772520157360384
2018-05-16,1.1770881061294771
2018-05-17,1.172112116924003
2018-05-18,1.1729641813959915
2018-05-21,1.1945400930055938
2018-05-22,1.1904437400627956
2018-05-23,1.2183005210163593
2018-05-24,1.22989675941783
2018-05-25,1.2337230451472923
2018-05-29,1.228640796273407
2018-05-30,1.2383782669754633
2018-05-31,1.23239033591843
2018-06-01,1.2491415043583916
2018-06-04,1.2507968293318417
2018-06-05,1.2513223232389028
2018-06-06,1.2529097784621155
2018-06-07,1.2353076498557258
2018-06-08,1.2338113301097562
2018-06-11,1.2553560470253007
2018-06-12,1.264252454574843
2018-06-13,1.3113165668650408
2018-06-14,1.3319579811887317
2018-06-15,1.3338078730447829
2018-06-18,1.3605130374023822
2018-06-19,1.370677598082377
2018-06-20,1.385389613543851
2018-06-21,1.3496181980134865
2018-06-22,1.347533313219893
2018-06-25,1.2788720935453608
2018-06-26,1.2788720935453608
2018-06-27,1.2788720935453608
2018-06-28,1.2788720935453608
2018-06-29,1.2788720935453608
2018-07-02,1.2672328891384055
2018-07-03,1.246596126388027
2018-07-05,1.253124052602781
2018-07-06,1.2613025973050338
2018-07-09,1.2656481059370885
2018-07-10,1.260604434323732
2018-07-11,1.2525012063856895
2018-07-12,1.2592165351626312
2018-07-13,1.2335478876839836
2018-07-16,1.2491746424951915
2018-07-17,1.2476949186067134
2018-07-18,1.2469371669351843
2018-07-19,1.2416329774976584
2018-07-20,1.2336768017361344
2018-07-23,1.2226284355929544
2018-07-24,1.1880695819717406
2018-07-25,1.202285083828067
2018-07-26,1.2873733300782155
2018-07-27,1.2948140223688864
2018-07-30,1.294570669074727
2018-07-31,1.2527206287227943
2018-08-01,1.263662076168352
2018-08-02,1.2617800372733723
2018-08-03,1.2504139789899682
2018-08-06,1.2805146530457183
2018-08-07,1.2873519256158525
2018-08-08,1.2581300081307745
2018-08-09,1.2399444015931398
2018-08-10,1.2384288982500817
2018-08-13,1.2572580119816548
2018-08-14,1.2781990931536549
2018-08-15,1.2617053421085207
2018-08-16,1.2508433357028814
2018-08-17,1.2730164840787772
2018-08-20,1.2829958107404758
2018-08-21,1.298827291203027
2018-08-22,1.3295858432602117
2018-08-23,1.396815139398572
2018-08-24,1.4768670204117755
2018-08-27,1.5301366499303912
2018-08-28,1.5305967170594177
2018-08-29,1.5366844372094095
2018-08-30,1.5110202150183714
2018-08-31,1.5359524028371516
2018-09-04,1.6591215100044159
2018-09-05,1.6631414645614746
2018-09-06,1.6912494764106243
2018-09-07,1.684261015335244
2018-09-10,1.8065478352545097
2018-09-11,1.826400158709239
2018-09-12,1.8834390599466364
2018-09-13,1.8119064867675758
2018-09-14,1.903165959389777
2018-09-17,1.8888608415715167
2018-09-18,1.885940803916405
2018-09-19,1.8541304835877175
2018-09-20,1.846357995860694
2018-09-21,1.8331746580732
2018-09-24,1.9011024916833925
2018-09-25,1.913829987965232
2018-09-26,1.8940918472464274
2018-09-27,1.8851306674695483
2018-09-28,1.8302724953716132
2018-10-01,1.828583357644856
2018-10-02,1.7057177708502795
2018-10-03,1.66687627287319
2018-10-04,1.66687627287319
2018-10-05,1.66687627287319
2018-10-08,1.6663233604112475
2018-10-09,1.671875973266831
2018-10-10,1.6407542903193286
2018-10-11,1.6407542903193286
2018-10-12,1.6407542903193286
2018-10-15,1.6435194508419915
2018-10-16,1.651232717382047
2018-10-17,1.660619771999842
2018-10-18,1.657272393108721
2018-10-19,1.6574179084501484
2018-10-22,1.6583120700826595
2018-10-23,1.6604698522799708
2018-10-24,1.6539894549663596
2018-10-25,1.6674426990181386
2018-10-26,1.6599436119172593
2018-10-29,1.6668116571436131
2018-10-30,1.6668116571436131
2018-10-31,1.6668116571436131
2018-11-01,1.6668116571436131
2018-11-02,1.6668116571436131
2018-11-05,1.6668116571436131
2018-11-06,1.6668116571436131
2018-11-07,1.6668116571436131
2018-11-08,1.6668116571436131
2018-11-09,1.6668116571436131
2018-11-12,1.6668116571436131
2018-11-13,1.6668116571436131
2018-11-14,1.6668116571436131
2018-11-15,1.6668116571436131
2018-11-16,1.6668116571436131
2018-11-19,1.6668116571436131
2018-11-20,1.6668116571436131
2018-11-21,1.6668116571436131
2018-11-23,1.6668116571436131
2018-11-26,1.6668116571436131
2018-11-27,1.6668116571436131
2018-11-28,1.6668116571436131
2018-11-29,1.6668116571436131
2018-11-30,1.6668116571436131
2018-12-03,1.6668116571436131
2018-12-04,1.6668116571436131
2018-12-06,1.6668116571436131
2018-12-07,1.6668116571436131
2018-12-10,1.6668116571436131
2018-12-11,1.6668116571436131
2018-12-12,1.6668116571436131
2018-12-13,1.6668116571436131
2018-12-14,1.6668116571436131
2018-12-17,1.6668116571436131
2018-12-18,1.6668116571436131
2018-12-19,1.6668116571436131
2018-12-20,1.6668116571436131
2018-12-21,1.6668116571436131
2018-12-24,1.6668116571436131
2018-12-26,1.6668116571436131
2018-12-27,1.6668116571436131
2018-12-28,1.6668116571436131
2018-12-31,1.6668116571436131
2019-01-02,1.6668116571436131
2019-01-03,1.6668116571436131
2019-01-04,1.6668116571436131
2019-01-07,1.6668116571436131
2019-01-08,1.6668116571436131
2019-01-09,1.6668116571436131
2019-01-10,1.6668116571436131
2019-01-11,1.6668116571436131
2019-01-14,1.6668116571436131
2019-01-15,1.6668116571436131
2019-01-16,1.6668116571436131
2019-01-17,1.6668116571436131
2019-01-18,1.6668116571436131
2019-01-22,1.6668116571436131
2019-01-23,1.6668116571436131
2019-01-24,1.6668116571436131
2019-01-25,1.6668116571436131
2019-01-28,1.6668116571436131
2019-01-29,1.6668116571436131
2019-01-30,1.6668116571436131
2019-01-31,1.6668116571436131
2019-02-01,1.6668116571436131
2019-02-04,1.6668116571436131
2019-02-05,1.6668116571436131
2019-02-06,1.6668116571436131
2019-02-07,1.6668116571436131
2019-02-08,1.6668116571436131
2019-02-11,1.6668116571436131
2019-02-12,1.6668116571436131
2019-02-13,1.6668116571436131
2019-02-14,1.6668116571436131
2019-02-15,1.6668116571436131
2019-02-19,1.6607555377102308
2019-02-20,1.67340849373431
2019-02-21,1.679542204927814
2019-02-22,1.7071175667246923
2019-02-25,1.7230620595104402
2019-02-26,1.6558495976746217
2019-02-27,1.6495852400670432
2019-02-28,1.6444729471177846
2019-03-01,1.6475125846038963
2019-03-04,1.617086766781548
2019-03-05,1.5907965695558994
2019-03-06,1.5891488617271432
2019-03-07,1.6015375023339735
2019-03-08,1.6200524052041554
2019-03-11,1.6581712953841814
2019-03-12,1.6623916209284635
2019-03-13,1.6780476187200415
2019-03-14,1.707181341558112
2019-03-15,1.7105848148229872
2019-03-18,1.7458532399376843
2019-03-19,1.7591215304231524
2019-03-20,1.7832967638303279
2019-03-21,1.881999105148037
2019-03-22,1.817461141253741
2019-03-25,1.8314403328892863
2019-03-26,1.8709464820700679
2019-03-27,1.8287401137213621
2019-03-28,1.846498330368349
2019-03-29,1.849917057265281
2019-04-01,1.8529240264672353
2019-04-02,1.8356906392000023
2019-04-03,1.8259251775985312
2019-04-04,1.689384352189383
2019-04-05,1.663581259577958
2019-04-08,1.6405649048969515
2019-04-09,1.6032769764803385
2019-04-10,1.6203311375981193
2019-04-11,1.6191749522530154
2019-04-12,1.6209092578369615
2019-04-15,1.6167027809843377
2019-04-16,1.5963590444136422
2019-04-17,1.549920751550498
2019-04-18,1.5286463414213007
2019-04-22,1.5626291238524668
2019-04-23,1.5999085126935322
2019-04-24,1.6150759539953479
2019-04-25,1.5758896553821882
2019-04-26,1.5965767400808968
2019-04-29,1.5966518760885393
2019-04-30,1.584696291531803
2019-05-01,1.5631840346671861
2019-05-02,1.6129914351710029
2019-05-03,1.6305891869260505
2019-05-06,1.5979735813010674
2019-05-07,1.5481705183420242
2019-05-08,1.5545767062493105
2019-05-09,1.5511094400710812
2019-05-10,1.5915883503360089
2019-05-13,1.5240750963238665
2019-05-14,1.5445178721861401
2019-05-15,1.545704085497119
2019-05-16,1.5142186466142842
2019-05-17,1.499799457947639
2019-05-20,1.4912174228558364
2019-05-21,1.4963635512364548
2019-05-22,1.5039923108526319
2019-05-23,1.4819551616236726
2019-05-24,1.4893265934932924
2019-05-28,1.5007825153402403
2019-05-29,1.4723138266328804
2019-05-30,1.4872723354398396
2019-05-31,1.4615677005977599
2019-06-03,1.4607067964627405
2019-06-04,1.4607067964627405
2019-06-05,1.4607067964627405
2019-06-06,1.4607067964627405
2019-06-07,1.4607067964627405
2019-06-10,1.4553924159205138
2019-06-11,1.415788658749898
2019-06-12,1.4378405712188638
2019-06-13,1.4331122320522214
2019-06-14,1.4232439341104515
2019-06-17,1.4219819808678293
2019-06-18,1.4240007552859617
2019-06-19,1.4681050672562885
2019-06-20,1.4669603925149364
2019-06-21,1.4505526762678773
2019-06-24,1.4173409171859237
2019-06-25,1.3805769052752233
2019-06-26,1.3520649370682873
2019-06-27,1.3537257657910586
2019-06-28,1.3549857361606554
2019-07-01,1.3553110508267587
2019-07-02,1.3795306565410062
2019-07-03,1.3899261426212544
2019-07-05,1.3960904664503224
2019-07-08,1.4021212816845758
2019-07-09,1.4163287819727306
2019-07-10,1.4017508059962296
2019-07-11,1.394348650961638
2019-07-12,1.3928064491374879
2019-07-15,1.4228953126735748
2019-07-16,1.3961171327666222
2019-07-17,1.4103142658547587
2019-07-18,1.4420240644583733
2019-07-19,1.4144322522945951
2019-07-22,1.4367299116145271
2019-07-23,1.4242086719052534
2019-07-24,1.4516660107333776
2019-07-25,1.4510338839926105
2019-07-26,1.4603202840390068
2019-07-29,1.423280940564318
2019-07-30,1.389399570781
2019-07-31,1.3827997347421723
2019-08-01,1.438189732976162
2019-08-02,1.4053220824477854
2019-08-05,1.3795954376676804
2019-08-06,1.4093357336296606
2019-08-07,1.4284453765401275
2019-08-08,1.4670864199378535
2019-08-09,1.4928223951879613
2019-08-12,1.4809811363677383
2019-08-13,1.4924999161477195
2019-08-14,1.4516117299864968
2019-08-15,1.4501732227334698
2019-08-16,1.4699568918656323
2019-08-19,1.4769877557807276
2019-08-20,1.5009880902490464
2019-08-21,1.5348608194224425
2019-08-22,1.5327545333594794
2019-08-23,1.5140366753299994
2019-08-26,1.5484542229362779
2019-08-27,1.5702502969601042
2019-08-28,1.5480738378930812
2019-08-29,1.5438370588403334
2019-08-30,1.5263590269886618
2019-09-03,1.5239968418625747
2019-09-04,1.5199471122363017
2019-09-05,1.5330984134598449
2019-09-06,1.5071336205882613
2019-09-09,1.4591274694072727
2019-09-10,1.4628227454871774
2019-09-11,1.4783142873959458
2019-09-12,1.477745659375647
2019-09-13,1.4785985180214016
2019-09-16,1.4855881541297793
2019-09-17,1.5023365787961371
2019-09-18,1.523707939401253
2019-09-19,1.510585961034933
2019-09-20,1.4927375939478356
2019-09-23,1.509231795976851
2019-09-24,1.4884229892871774
2019-09-25,1.5222038588568114
2019-09-26,1.5165347082819964
2019-09-27,1.4709547728551655
2019-09-30,1.4779465299496617
2019-10-01,1.4710791006162247
2019-10-02,1.4512889890446505
2019-10-03,1.4623792165960725
2019-10-04,1.4895883824763199
2019-10-07,1.487478306121106
2019-10-08,1.4481977957176349
2019-10-09,1.4714917021446046
2019-10-10,1.4734908797576258
2019-10-11,1.4913414727071834
2019-10-14,1.4840341736565095
2019-10-15,1.5108282530752328
2019-10-16,1.4847442345789852
2019-10-17,1.496102763852977
2019-10-18,1.4832881330313437
2019-10-21,1.5121520988194468
2019-10-22,1.5006411714989047
2019-10-23,1.4776770877363865
2019-10-24,1.5790759995533987
2019-10-25,1.5921306171550822
2019-10-28,1.633947000190993
2019-10-29,1.6041472585023375
2019-10-30,1.6190603268913715
2019-10-31,1.5892894720540234
2019-11-01,1.6175259132041
2019-11-04,1.625146376774762
2019-11-05,1.6148619095113657
2019-11-06,1.6136021289438012
2019-11-07,1.6085470368929493
2019-11-08,1.61737744713044
2019-11-11,1.6161800930353172
2019-11-12,1.6141233615208441
2019-11-13,1.6275600234859735
2019-11-14,1.633014611225052
2019-11-15,1.6572489056650914
2019-11-18,1.6514202097137796
2019-11-19,1.6368841267274257
2019-11-20,1.6211829193281209
2019-11-21,1.5746857607162494
2019-11-22,1.5727867634154848
2019-11-25,1.5603347727270704
2019-11-26,1.5274612615954597
2019-11-27,1.5412357582505134
2019-11-29,1.5329762574732237
2019-12-02,1.5358742081595795
2019-12-03,1.5422963247114037
2019-12-04,1.5507841321961662
2019-12-05,1.5433153966607178
2019-12-06,1.5561216704271894
2019-12-09,1.55049889624937
2019-12-10,1.58191549087264
2019-12-11,1.591328617101992
2019-12-12,1.607867515626464
2019-12-13,1.6049213312438309
2019-12-16,1.6751686666323757
2019-12-17,1.654663397430785
2019-12-18,1.6918348510715773
2019-12-19,1.7192507737164133
2019-12-20,1.7293540698707004
2019-12-23,1.7574479161814238
2019-12-24,1.7761584041049132
2019-12-26,1.7856262223305257
2019-12-27,1.7810549048328481
2019-12-30,1.7460557571652018
2019-12-31,1.758151733491347
2020-01-02,1.7808450590249523
2020-01-03,1.801007114139249
2020-01-06,1.8260045033146097
2020-01-07,1.8689900642275794
2020-01-08,1.941563430627292
2020-01-09,1.9191418981249273
2020-01-10,1.907452352222547
2020-01-13,2.0088314140541397
2020-01-14,2.0572372969405577
2020-01-15,2.0195754666562244
2020-01-16,1.99705889117356
2020-01-17,1.991021114065608
2020-01-21,2.0432158809817493
2020-01-22,2.09428403531113
2020-01-23,2.1003134936531076
2020-01-24,2.0834582713877547
2020-01-27,2.0718871094781055
2020-01-28,2.1109442536238805
2020-01-29,2.147673890766484
2020-01-30,2.290207843240927
2020-01-31,2.299769513711176
2020-02-03,2.5996067130528635
2020-02-04,2.8623529235890364
2020-02-05,2.6536837141726126
2020-02-06,2.6507566859864324
2020-02-07,2.657234726100284
2020-02-10,2.712265353869377
2020-02-11,2.7152682337055998
2020-02-12,2.7490451483779763
2020-02-13,2.782952105532253
2020-02-14,2.785692521965176
2020-02-18,2.830962429744653
2020-02-19,2.868157159883828
2020-02-20,2.833855146650878
2020-02-21,2.6959061812325165
2020-02-24,2.7042496008306673
2020-02-25,2.6427753225722825
2020-02-26,2.6324173998920677
2020-02-27,2.55402154929517
2020-02-28,2.55402154929517
2020-03-02,2.581275913510191
2020-03-03,2.5523801651964395
2020-03-04,2.6411307340379904
2020-03-05,2.6076395577884144
2020-03-06,2.5999037253431556
2020-03-09,2.50018345974439
2020-03-10,2.50018345974439
2020-03-11,2.50018345974439
2020-03-12,2.50018345974439
2020-03-13,2.50018345974439
2020-03-16,2.50018345974439
2020-03-17,2.50018345974439
2020-03-18,2.50018345974439
2020-03-19,2.50018345974439
2020-03-20,2.50018345974439
2020-03-23,2.50018345974439
2020-03-24,2.50018345974439
2020-03-25,2.50018345974439
2020-03-26,2.50018345974439
2020-03-27,2.50018345974439
2020-03-30,2.50018345974439
2020-03-31,2.50018345974439
2020-04-01,2.50018345974439
2020-04-02,2.50018345974439
2020-04-03,2.50018345974439
2020-04-06,2.50018345974439
2020-04-07,2.50018345974439
2020-04-08,2.50018345974439
2020-04-09,2.50018345974439
2020-04-13,2.4808449162449984
2020-04-14,2.6107107127385336
2020-04-15,2.6987183264721883
2020-04-16,2.7418574580440263
2020-04-17,2.723375880494041
2020-04-20,2.8519270469384272
2020-04-21,2.6969682627181015
2020-04-22,2.7738612014946367
2020-04-23,2.77888109768868
2020-04-24,2.8700881102665092
2020-04-27,2.9625763947524586
2020-04-28,2.81455028099737
2020-04-29,2.794472259770128
2020-04-30,2.7683444332018965
2020-05-01,2.7972600776363894
2020-05-04,2.9317661969105133
2020-05-05,2.9340967656507595
2020-05-06,2.9780009761267667
2020-05-07,3.089437725117339
2020-05-08,3.098721710581208
2020-05-11,3.146008958216558
2020-05-12,3.134324500704003
2020-05-13,3.1181837565987522
2020-05-14,3.1394527466995
2020-05-15,3.1544904971041645
2020-05-18,3.081688555400654
2020-05-19,3.1624216314632854
2020-05-20,3.25012451444465
2020-05-21,3.214222353677199
2020-05-22,3.2747226861787895
2020-05-26,3.204662081346985
2020-05-27,3.136485648242939
2020-05-28,3.193833900839003
2020-05-29,3.8082571650829364
2020-06-01,4.191984328881597
2020-06-02,4.061753350185368
2020-06-03,4.212057005440617
2020-06-04,4.081214899009848
2020-06-05,3.9639896288974166
2020-06-08,4.063306228138803
2020-06-09,4.046929853401478
2020-06-10,4.160085031356761
2020-06-11,4.053728721888203
2020-06-12,4.00824520977776
2020-06-15,4.175445236184393
2020-06-16,4.185587354419106
2020-06-17,4.200752029463951
2020-06-18,4.397856262057463
2020-06-19,4.298940223364744
2020-06-22,4.405342700389924
2020-06-23,4.401676673122806
2020-06-24,4.349355641056899
2020-06-25,4.45810206599209
2020-06-26,4.199391987582937
2020-06-29,4.1726070671335425
2020-06-30,4.300075655042929
2020-07-01,4.396661962939495
2020-07-02,4.464383656872762
2020-07-06,4.534667215335665
2020-07-07,4.51695588726117
2020-07-08,4.829087123629549
2020-07-09,5.019921639155141
2020-07-10,4.964966509174007
2020-07-13,4.630974716752423
2020-07-14,4.553612201225784
2020-07-15,4.5030303791388455
2020-07-16,4.450495772738769
2020-07-17,4.512209329606311
2020-07-20,4.831103664551145
2020-07-21,4.683241421892742
2020-07-22,4.710336584461679
2020-07-23,4.565270898957117
2020-07-24,4.348928961202951
2020-07-27,4.554174496043535
2020-07-28,4.45788776421423
2020-07-29,4.539550830491871
2020-07-30,4.568892809609229
2020-07-31,4.501879032668381
2020-08-03,4.629724035193478
2020-08-04,4.6307145266055265
2020-08-05,4.6678342748894215
2020-08-06,4.630158355744188
2020-08-07,4.453921066662074
2020-08-10,4.273740411470366
2020-08-11,4.213034207757526
2020-08-12,4.460874170749971
2020-08-13,4.551892198409124
2020-08-14,4.592715658381746
2020-08-17,4.856125341711704
2020-08-18,4.905393907086073
2020-08-19,4.877561372792484
2020-08-20,5.094348936259463
2020-08-21,5.189831420655371
2020-08-24,5.120086190565934
2020-08-25,5.22483832665684
2020-08-26,5.393929150474517
2020-08-27,5.44893184877729
2020-08-28,5.463438226320812
2020-08-31,5.994283777523465
2020-09-01,5.8727548014767255
2020-09-02,5.384608589891918
2020-09-03,5.187746144504052
2020-09-04,5.187746144504052
2020-09-08,5.191519896799485
2020-09-09,5.240902292748962
2020-09-10,5.226723769114894
2020-09-11,5.201385558359716
2020-09-14,5.22782150938525
2020-09-15,5.285112992298788
2020-09-16,5.2762275475959335
2020-09-17,5.217263147454382
2020-09-18,5.236928047668954
2020-09-21,5.317574909291994
2020-09-22,5.378749324338723
2020-09-23,5.273530497749123
2020-09-24,5.233951979258069
2020-09-25,5.287355543825401
2020-09-28,5.319161137771558
2020-09-29,5.312339248674309
2020-09-30,5.343106841971039
2020-10-01,5.411256873655972
2020-10-02,5.350435924354322
2020-10-05,5.421428817294584
2020-10-06,5.416487847841712
2020-10-07,5.463818722864401
2020-10-08,5.448775613935751
2020-10-09,5.485954800020548
2020-10-12,5.516233999719273
2020-10-13,5.584778172068372
2020-10-14,5.506669014971598
2020-10-15,5.459700521634345
2020-10-16,5.463970897615268
2020-10-19,5.437943529502487
2020-10-20,5.422494187882233
2020-10-21,5.321361356810819
2020-10-22,5.281373202258743
2020-10-23,5.281373202258743
2020-10-26,5.245676726342491
2020-10-27,5.243718007247911
2020-10-28,5.189891177731778
2020-10-29,5.267960438485463
2020-10-30,5.147991013998942
2020-11-02,5.156140573624035
2020-11-03,5.1898130431316964
2020-11-04,5.309059003974541
2020-11-05,5.602993237299604
2020-11-06,5.6475484472793
2020-11-09,5.465505698075005
2020-11-10,5.41161654740808
2020-11-11,5.490093867743241
2020-11-12,5.450958796671078
2020-11-13,5.454582458821784
2020-11-16,5.5307270362318555
2020-11-17,5.509372820573551
2020-11-18,5.504207931666098
2020-11-19,5.5175859516823955
2020-11-20,5.4555301459027845
2020-11-23,5.52289936238313
2020-11-24,5.613132073951906
2020-11-25,5.568193615603169
2020-11-27,5.5611204291583185
2020-11-30,5.536281438794973
2020-12-01,5.576944211777061
2020-12-02,5.520504247286204
2020-12-03,5.519776189334888
2020-12-04,5.599943656902415
2020-12-07,5.578079626188851
2020-12-08,5.60838674277878
2020-12-09,5.511359994317292
2020-12-10,5.503577545859825
2020-12-11,5.383473301199947
2020-12-14,5.405732033593123
2020-12-15,5.428675950991067
2020-12-16,5.436672510185169
2020-12-17,5.690019744244887
2020-12-18,5.690936879170918
2020-12-21,5.7416779885612765
2020-12-22,5.801957765248595
2020-12-23,5.628051127093544
2020-12-24,5.669888802499283
2020-12-28,5.552152608275005
2020-12-29,5.541049347789528
2020-12-30,5.616295667620734
2020-12-31,5.693442689983646
2021-01-04,5.582505178545281
2021-01-05,5.7457470108899615
2021-01-06,5.63529040119762
2021-01-07,5.711829876165943
2021-01-08,5.647153145641969
2021-01-11,5.574238629011511
2021-01-12,5.7253506602232545
2021-01-13,5.758278616543269
2021-01-14,5.781735830529904
2021-01-15,5.700001012940024
2021-01-19,5.941048063852866
2021-01-20,5.8831533666257725
2021-01-21,5.923686301300705
2021-01-22,5.824423974012225
2021-01-25,5.894107264556762
2021-01-26,5.833606054007326
2021-01-27,5.626443679670624
2021-01-28,5.53565032495187
2021-01-29,5.403237309623341
2021-02-01,5.529920992147472
2021-02-02,5.69260622777322
2021-02-03,5.616213796415871
2021-02-04,5.675731433906448
2021-02-05,5.6767496672282425
2021-02-08,5.697339508778895
2021-02-09,5.670394884861257
2021-02-10,5.625664099645611
2021-02-11,5.690841808644673
2021-02-12,5.797110757489232
2021-02-16,5.738262813753971
2021-02-17,5.63400678086207
2021-02-18,5.642719182239679
2021-02-19,5.642087812506941
2021-02-22,5.42081031375857
2021-02-23,5.218706713765281
2021-02-24,5.218706713765281
2021-02-25,5.218706713765281
2021-02-26,5.218706713765281
2021-03-01,5.233262870897166
2021-03-02,5.131475304992151
2021-03-03,5.081972206368211
2021-03-04,4.946660138143326
2021-03-05,4.929416636717405
2021-03-08,4.802652832181135
2021-03-09,4.9550875481408285
2021-03-10,4.884137474464239
2021-03-11,4.9876737795602315
2021-03-12,4.934563742453949
2021-03-15,4.95603631387407
2021-03-16,5.031483385824961
2021-03-17,5.0931119136323675
2021-03-18,4.962977707724185
2021-03-19,4.978915126919128
2021-03-22,5.038464210858834
2021-03-23,4.924421480505542
2021-03-24,4.975988280857587
2021-03-25,4.960911400721961
2021-03-26,5.058363585556369
2021-03-29,5.045647007612004
2021-03-30,5.028374299020983
2021-03-31,5.11215824733094
2021-04-01,5.220342835983187
2021-04-05,5.3154152665422325
2021-04-06,5.2384801261805665
2021-04-07,5.261279196853511
2021-04-08,5.295074162459964
2021-04-09,5.337911751894387
2021-04-12,5.182973541257299
2021-04-13,5.176584852348653
2021-04-14,5.118452161352163
2021-04-15,5.121401557848618
2021-04-16,5.113972415973772
2021-04-19,5.0607339577684245
2021-04-20,5.076620063782535
2021-04-21,4.992973264575611
2021-04-22,4.952624734648602
2021-04-23,4.952624734648602
2021-04-26,4.9965602985573465
2021-04-27,4.973977059476234
2021-04-28,4.97513597829192
2021-04-29,4.953707255946003
2021-04-30,4.909572995425466
2021-05-03,4.919432403581233
2021-05-04,4.790534375555946
2021-05-05,4.7891026874711935
2021-05-06,4.827154264588848
2021-05-07,4.891373366188324
2021-05-10,4.682271188892862
2021-05-11,4.687872818164683
2021-05-12,4.609483211215277
2021-05-13,4.609483211215277
2021-05-14,4.609483211215277
2021-05-17,4.6115073867936935
2021-05-18,4.580311224824078
2021-05-19,4.586292356601399
2021-05-20,4.612597703938329
2021-05-21,4.605529027703152
2021-05-24,4.646697017443854
2021-05-25,4.658234095192534
2021-05-26,4.6521122140493425
2021-05-27,4.67467110320908
2021-05-28,4.659210549572541
2021-06-01,4.667010649662609
2021-06-02,4.66203230180198
2021-06-03,4.64463280916629
2021-06-04,4.666366149238578
2021-06-07,4.65757707297451
2021-06-08,4.650439666592671
2021-06-09,4.632043236784997
2021-06-10,4.640165467038328
2021-06-11,4.635755342323932
2021-06-14,4.670608247003463
2021-06-15,4.640714342691178
2021-06-16,4.622692331242407
2021-06-17,4.655050400966324
2021-06-18,4.629874912279139
2021-06-21,4.612059701946217
2021-06-22,4.642495807998913
2021-06-23,4.6861361449403445
2021-06-24,4.667932983251863
2021-06-25,4.640790529049989
2021-06-28,4.753501389471785
2021-06-29,4.7064527785586705
2021-06-30,4.557361374357805
2021-07-01,4.560276733486148
2021-07-02,4.493578499056987
2021-07-06,4.482290406404195
2021-07-07,4.438420561458296
2021-07-08,4.3697440733309545
2021-07-09,4.4032793965427155
2021-07-12,4.463505038640886
2021-07-13,4.431090166934656
2021-07-14,4.370375113808372
2021-07-15,4.305971285887896
2021-07-16,4.29384304728491
2021-07-19,4.278241707914114
2021-07-20,4.3165331371946145
2021-07-21,4.345964710273043
2021-07-22,4.378910468571069
2021-07-23,4.462544940820904
2021-07-26,4.474245353075643
2021-07-27,4.443425428209994
2021-07-28,4.46393659959768
2021-07-29,4.414125371492545
2021-07-30,4.416269629627388
2021-08-02,4.395004925317824
2021-08-03,4.398122926887855
2021-08-04,4.438963513755548
2021-08-05,4.4580317222261066
2021-08-06,4.452035918666192
2021-08-09,4.447069137026258
2021-08-10,4.43436440671142
2021-08-11,4.434569206144992
2021-08-12,4.454516814128594
2021-08-13,4.464660223461781
2021-08-16,4.481802104256884
2021-08-17,4.43680713845572
2021-08-18,4.419602843424947
2021-08-19,4.439864915765653
2021-08-20,4.443855337983638
2021-08-23,4.483563072274473
2021-08-24,4.537449660118947
2021-08-25,4.543407787856087
2021-08-26,4.452137301849652
2021-08-27,4.512250892816411
2021-08-30,4.562965795751296
2021-08-31,4.584204382787917
2021-09-01,4.536590103191603
2021-09-02,4.603269896568681
2021-09-03,4.661667888428411
2021-09-07,4.6135390410841435
2021-09-08,4.632966939898875
2021-09-09,4.652004176066465
2021-09-10,4.551477591046455
2021-09-13,4.516538931233091
2021-09-14,4.658129118595931
2021-09-15,4.667112924912466
2021-09-16,4.780681240874517
2021-09-17,4.751353676156641
2021-09-20,4.655294063694438
2021-09-21,4.705561726033615
2021-09-22,4.86266105958256
2021-09-23,4.857925791880236
2021-09-24,4.8273118688261905
2021-09-27,4.6338368667646055
2021-09-28,4.555722909194531
2021-09-29,4.568289144193755
2021-09-30,4.622799143225069
2021-10-01,4.6795165314960965
2021-10-04,4.51011180853134
2021-10-05,4.610939524760924
2021-10-06,4.669326728687988
2021-10-07,4.665537328018733
2021-10-08,4.57497762653767
2021-10-11,4.615970292292067
2021-10-12,4.719923614093313
2021-10-13,4.953167029593888
2021-10-14,4.898274302431442
2021-10-15,4.923637467408621
2021-10-18,5.004272396840627
2021-10-19,5.023339431414785
2021-10-20,5.029920660183695
2021-10-21,5.077532655812105
2021-10-22,5.091020040041397
2021-10-25,5.112600614376307
2021-10-26,5.108038699260868
2021-10-27,4.98350313246832
2021-10-28,5.066733588536512
2021-10-29,5.211604869696588
2021-11-01,5.122004803740686
2021-11-02,5.167349780937888
2021-11-03,5.139037087812286
2021-11-04,5.24476191247956
2021-11-05,5.611749452522218
2021-11-08,5.750653590244603
2021-11-09,5.852951757380558
2021-11-10,5.666050904086136
2021-11-11,5.676328743206786
2021-11-12,5.767883844949204
2021-11-15,5.720925685842317
2021-11-16,5.817791249694786
2021-11-17,5.72885799749336
2021-11-18,5.729045844323007
2021-11-19,5.768013080808261
2021-11-22,5.427379981318488
2021-11-23,5.26062395442272
2021-11-24,5.26062395442272
2021-11-26,5.26062395442272
2021-11-29,5.416353038572645
2021-11-30,5.300345675920788
2021-12-01,5.045160291248237
2021-12-02,5.127542661534621
2021-12-03,4.8996799094704535
2021-12-06,4.6414151498760425
2021-12-07,4.6414151498760425
2021-12-08,4.6414151498760425
2021-12-09,4.6414151498760425
2021-12-10,4.6414151498760425
2021-12-13,4.522296142588507
2021-12-14,4.463857405129561
2021-12-15,4.635101555183589
2021-12-16,4.440867490139403
2021-12-17,4.504555033032626
2021-12-20,4.5450478433098755
2021-12-21,4.6198770946460535
2021-12-22,4.704518295439884
2021-12-23,4.724056071491415
2021-12-27,4.840193222986017
2021-12-28,4.747571820894384
2021-12-29,4.775141294092913
2021-12-30,4.718860446298296
2021-12-31,4.72137243077024
2022-01-03,4.7640108462266015
2022-01-04,4.764504252224003
2022-01-05,4.551377107078404
2022-01-06,4.567553744905673
2022-01-07,4.478709258274411
2022-01-10,4.423620690123009
2022-01-11,4.427260554665686
2022-01-12,4.437944777471873
2022-01-13,4.443932669816094
2022-01-14,4.464361739392524
2022-01-18,4.369755147975496
2022-01-19,4.336058731828373
2022-01-20,4.3112908760616016
2022-01-21,4.3112908760616016
2022-01-24,4.3112908760616016
2022-01-25,4.3112908760616016
2022-01-26,4.3112908760616016
2022-01-27,4.3112908760616016
2022-01-28,4.3112908760616016
2022-01-31,4.3112908760616016
2022-02-01,4.3112908760616016
2022-02-02,4.3112908760616016
2022-02-03,4.3112908760616016
2022-02-04,4.3112908760616016
2022-02-07,4.3112908760616016
2022-02-08,4.3112908760616016
2022-02-09,4.3112908760616016
2022-02-10,4.3112908760616016
2022-02-11,4.3112908760616016
2022-02-14,4.3112908760616016
2022-02-15,4.3112908760616016
2022-02-16,4.3112908760616016
2022-02-17,4.3112908760616016
2022-02-18,4.3112908760616016
2022-02-22,4.3112908760616016
2022-02-23,4.3112908760616016
2022-02-24,4.3112908760616016
2022-02-25,4.3112908760616016
2022-02-28,4.3112908760616016
2022-03-01,4.3112908760616016
2022-03-02,4.3112908760616016
2022-03-03,4.3112908760616016
2022-03-04,4.3112908760616016
2022-03-07,4.3112908760616016
2022-03-08,4.3112908760616016
2022-03-09,4.3112908760616016
2022-03-10,4.3112908760616016
2022-03-11,4.3112908760616016
2022-03-14,4.3112908760616016
2022-03-15,4.3112908760616016
2022-03-16,4.3112908760616016
2022-03-17,4.3112908760616016
2022-03-18,4.3112908760616016
2022-03-21,4.3112908760616016
2022-03-22,4.3112908760616016
2022-03-23,4.3112908760616016
2022-03-24,4.3112908760616016
2022-03-25,4.3112908760616016
2022-03-28,4.3112908760616016
2022-03-29,4.3112908760616016
2022-03-30,4.3112908760616016
2022-03-31,4.3112908760616016
2022-04-01,4.3112908760616016
2022-04-04,4.3112908760616016
2022-04-05,4.3112908760616016
2022-04-06,4.3112908760616016
2022-04-07,4.3112908760616016
2022-04-08,4.3112908760616016
2022-04-11,4.3112908760616016
2022-04-12,4.3112908760616016
2022-04-13,4.3112908760616016
2022-04-14,4.3112908760616016
2022-04-18,4.3112908760616016
2022-04-19,4.3112908760616016
2022-04-20,4.3112908760616016
2022-04-21,4.3112908760616016
2022-04-22,4.3112908760616016
2022-04-25,4.3112908760616016
2022-04-26,4.3112908760616016
2022-04-27,4.3112908760616016
2022-04-28,4.3112908760616016
2022-04-29,4.3112908760616016
2022-05-02,4.3112908760616016
2022-05-03,4.3112908760616016
2022-05-04,4.3112908760616016
2022-05-05,4.3112908760616016
2022-05-06,4.3112908760616016
2022-05-09,4.3112908760616016
2022-05-10,4.3112908760616016
2022-05-11,4.3112908760616016
2022-05-12,4.3112908760616016
2022-05-13,4.3112908760616016
2022-05-16,4.3112908760616016
2022-05-17,4.3112908760616016
2022-05-18,4.3112908760616016
2022-05-19,4.3112908760616016
2022-05-20,4.3112908760616016
2022-05-23,4.3112908760616016
2022-05-24,4.3112908760616016
2022-05-25,4.3112908760616016
2022-05-26,4.3112908760616016
2022-05-27,4.3112908760616016
2022-05-31,4.3112908760616016
2022-06-01,4.3112908760616016
2022-06-02,4.3112908760616016
2022-06-03,4.3112908760616016
2022-06-06,4.3112908760616016
2022-06-07,4.3112908760616016
2022-06-08,4.3112908760616016
2022-06-09,4.3112908760616016
2022-06-10,4.3112908760616016
2022-06-13,4.3112908760616016
2022-06-14,4.3112908760616016
2022-06-15,4.3112908760616016
2022-06-16,4.3112908760616016
2022-06-17,4.3112908760616016
2022-06-21,4.3112908760616016
2022-06-22,4.3112908760616016
2022-06-23,4.3112908760616016
2022-06-24,4.3112908760616016
2022-06-27,4.3112908760616016
2022-06-28,4.3112908760616016
2022-06-29,4.3112908760616016
2022-06-30,4.3112908760616016
2022-07-01,4.3112908760616016
2022-07-05,4.3112908760616016
2022-07-06,4.3112908760616016
2022-07-07,4.3112908760616016
2022-07-08,4.3112908760616016
2022-07-11,4.3112908760616016
2022-07-12,4.3112908760616016
2022-07-13,4.3112908760616016
2022-07-14,4.3112908760616016
2022-07-15,4.3112908760616016
2022-07-18,4.3112908760616016
2022-07-19,4.3112908760616016
2022-07-20,4.3112908760616016
2022-07-21,4.3112908760616016
2022-07-22,4.3112908760616016
2022-07-25,4.3112908760616016
2022-07-26,4.3112908760616016
2022-07-27,4.3112908760616016
2022-07-28,4.3112908760616016
2022-07-29,4.3112908760616016
2022-08-01,4.3112908760616016
2022-08-02,4.3112908760616016
2022-08-03,4.3112908760616016
2022-08-04,4.3112908760616016
2022-08-05,4.3112908760616016
2022-08-08,4.3112908760616016
2022-08-09,4.3112908760616016
2022-08-10,4.3112908760616016
2022-08-11,4.3112908760616016
2022-08-12,4.3112908760616016
2022-08-15,4.3112908760616016
2022-08-16,4.3112908760616016
2022-08-17,4.3112908760616016
2022-08-18,4.3112908760616016
2022-08-19,4.3112908760616016
2022-08-22,4.3112908760616016
2022-08-23,4.3112908760616016
2022-08-24,4.3112908760616016
2022-08-25,4.3112908760616016
2022-08-26,4.3112908760616016
2022-08-29,4.3112908760616016
2022-08-30,4.3112908760616016
2022-08-31,4.3112908760616016
2022-09-01,4.3112908760616016
2022-09-02,4.3112908760616016
2022-09-06,4.3112908760616016
2022-09-07,4.3112908760616016
2022-09-08,4.3112908760616016
2022-09-09,4.3112908760616016
2022-09-12,4.3112908760616016
2022-09-13,4.3112908760616016
2022-09-14,4.3112908760616016
2022-09-15,4.3112908760616016
2022-09-16,4.3112908760616016
2022-09-19,4.3112908760616016
2022-09-20,4.3112908760616016
2022-09-21,4.3112908760616016
2022-09-22,4.3112908760616016
2022-09-23,4.3112908760616016
2022-09-26,4.3112908760616016
2022-09-27,4.3112908760616016
2022-09-28,4.3112908760616016
2022-09-29,4.3112908760616016
2022-09-30,4.3112908760616016
2022-10-03,4.3112908760616016
2022-10-04,4.3112908760616016
2022-10-05,4.3112908760616016
2022-10-06,4.3112908760616016
2022-10-07,4.3112908760616016
2022-10-10,4.3112908760616016
2022-10-11,4.3112908760616016
2022-10-12,4.3112908760616016
2022-10-13,4.3112908760616016
2022-10-14,4.3112908760616016
2022-10-17,4.3112908760616016
2022-10-18,4.3112908760616016
2022-10-19,4.3112908760616016
2022-10-20,4.3112908760616016
2022-10-21,4.3112908760616016
2022-10-24,4.3112908760616016
2022-10-25,4.3112908760616016
2022-10-26,4.3112908760616016
2022-10-27,4.3112908760616016
2022-10-28,4.3112908760616016
2022-10-31,4.3112908760616016
2022-11-01,4.3112908760616016
2022-11-02,4.3112908760616016
2022-11-03,4.3112908760616016
2022-11-04,4.3112908760616016
2022-11-07,4.3112908760616016
2022-11-08,4.3112908760616016
2022-11-09,4.3112908760616016
2022-11-10,4.3112908760616016
2022-11-11,4.3112908760616016
2022-11-14,4.3112908760616016
2022-11-15,4.3112908760616016
2022-11-16,4.3112908760616016
2022-11-17,4.3112908760616016
2022-11-18,4.3112908760616016
2022-11-21,4.3112908760616016
2022-11-22,4.3112908760616016
2022-11-23,4.3112908760616016
2022-11-25,4.3112908760616016
2022-11-28,4.3112908760616016
2022-11-29,4.3112908760616016
2022-11-30,4.3112908760616016
2022-12-01,4.3112908760616016
2022-12-02,4.3112908760616016
2022-12-05,4.3112908760616016
2022-12-06,4.3112908760616016
2022-12-07,4.3112908760616016
2022-12-08,4.3112908760616016
2022-12-09,4.3112908760616016
2022-12-12,4.3112908760616016
2022-12-13,4.3112908760616016
2022-12-14,4.3112908760616016
2022-12-15,4.3112908760616016
2022-12-16,4.3112908760616016
2022-12-19,4.3112908760616016
2022-12-20,4.3112908760616016
2022-12-21,4.3112908760616016
2022-12-22,4.3112908760616016
2022-12-23,4.3112908760616016
2022-12-27,4.3112908760616016
2022-12-28,4.3112908760616016
2022-12-29,4.3112908760616016
2022-12-30,4.3112908760616016
2023-01-03,4.3112908760616016
2023-01-04,4.3112908760616016
2023-01-05,4.3112908760616016
2023-01-06,4.3112908760616016
2023-01-09,4.3112908760616016
2023-01-10,4.3112908760616016
2023-01-11,4.3112908760616016
2023-01-12,4.3112908760616016
2023-01-13,4.3112908760616016
2023-01-17,4.3112908760616016
2023-01-18,4.3112908760616016
2023-01-19,4.3112908760616016
2023-01-20,4.3112908760616016
2023-01-23,4.3112908760616016
2023-01-24,4.3112908760616016
2023-01-25,4.3112908760616016
2023-01-26,4.3112908760616016
2023-01-27,4.3112908760616016
2023-01-30,4.3112908760616016
2023-01-31,4.3112908760616016
2023-02-01,4.3112908760616016
2023-02-02,4.3112908760616016
2023-02-03,4.3112908760616016
2023-02-06,4.335180132783452
2023-02-07,4.511744267426045
2023-02-08,4.420411092410818
2023-02-09,4.370410676777617
2023-02-10,4.2157750913379335
2023-02-13,4.330981617144255
2023-02-14,4.454126401163482
2023-02-15,4.405868154363747
2023-02-16,4.272372633911588
2023-02-17,4.2138429244882
2023-02-21,4.1442986286271335
2023-02-22,4.133204273327204
2023-02-23,4.131557604444032
2023-02-24,4.131557604444032
2023-02-27,4.1101209327485595
2023-02-28,4.130134825212365
2023-03-01,4.0983967584589065
2023-03-02,4.131947630369639
2023-03-03,4.221502942755464
2023-03-06,4.204737607894339
2023-03-07,4.190959102316557
2023-03-08,4.232697678384189
2023-03-09,4.180471961625704
2023-03-10,4.146815191730933
2023-03-13,4.155211797372159
2023-03-14,4.281932500855778
2023-03-15,4.311548865170206
2023-03-16,4.412001379608503
2023-03-17,4.364024701482607
2023-03-20,4.384883112659959
2023-03-21,4.4240733326161115
2023-03-22,4.421691838463215
2023-03-23,4.480108400696782
2023-03-24,4.472523079849161
2023-03-27,4.442649640741892
2023-03-28,4.424388462203772
2023-03-29,4.47750419296756
2023-03-30,4.509881661391128
2023-03-31,4.551715789064386
2023-04-03,4.566711529291185
2023-04-04,4.554281237331628
2023-04-05,4.50984605080971
2023-04-06,4.544418077029125
2023-04-10,4.559960496268982
2023-04-11,4.536658009235525
2023-04-12,4.508143003357285
2023-04-13,4.5449059352847
2023-04-14,4.56463161382101
2023-04-17,4.559476195958871
2023-04-18,4.582670572383532
2023-04-19,4.581032371735365
2023-04-20,4.529133692402755
2023-04-21,4.528706701900721
2023-04-24,4.524745223580072
2023-04-25,4.458296854934839
2023-04-26,4.500619988717135
2023-04-27,4.68763690358333
2023-04-28,4.721039598132907
2023-05-01,4.788897567358227
2023-05-02,4.7346695694762015
2023-05-03,4.703582022217952
2023-05-04,4.672014315454547
2023-05-05,4.716361861149132
2023-05-08,4.739863191458925
2023-05-09,4.715150284567324
2023-05-10,4.727111816475073
2023-05-11,4.729998203511277
2023-05-12,4.707712627460947
2023-05-15,4.764813800804447
2023-05-16,4.775921050467513
2023-05-17,4.840092274554278
2023-05-18,4.9317601039817065
2023-05-19,4.906419899433516
2023-05-22,4.918684091138498
2023-05-23,4.887890861314474
2023-05-24,4.896187489884483
2023-05-25,5.2419020447423526
2023-05-26,5.3402494873561865
2023-05-30,5.3939801962273215
2023-05-31,5.307822793128114
2023-06-01,5.439731926655899
2023-06-02,5.42039726922554
2023-06-05,5.4062580192581
2023-06-06,5.382071312501839
2023-06-07,5.285593041339149
2023-06-08,5.33665894491957
2023-06-09,5.350230992345843
2023-06-12,5.417966175497208
2023-06-13,5.48680869856097
2023-06-14,5.585214414732349
2023-06-15,5.62115824059457
2023-06-16,5.617872429106986
2023-06-20,5.68659605561521
2023-06-21,5.637126918692417
2023-06-22,5.655723934189104
2023-06-23,5.643242584896062
2023-06-26,5.512752233598206
2023-06-27,5.618611441730259
2023-06-28,5.574905972281396
2023-06-29,5.539433906826373
2023-06-30,5.63678542289321
2023-07-03,5.635861623351529
2023-07-05,5.681850002728876
2023-07-06,5.658206592034698
2023-07-07,5.66689252742178
2023-07-10,5.674247225889921
2023-07-11,5.709247302818604
2023-07-12,5.840993125862714
2023-07-13,5.9560229980854125
2023-07-14,5.90656689012185
2023-07-17,5.960382864747716
2023-07-18,6.01406609109553
2023-07-19,6.019661184423245
2023-07-20,5.870633666283744
2023-07-21,5.768137351061314
2023-07-24,5.761231608118161
2023-07-25,5.80780522315256
2023-07-26,5.797896769456326
2023-07-27,5.817451722135443
2023-07-28,5.854553141386807
2023-07-31,5.811012251653398
2023-08-01,5.864996691776257
2023-08-02,5.610526165235417
2023-08-03,5.635238811122209
2023-08-04,5.789879213503957
2023-08-07,5.95481275566323
2023-08-08,5.870499070503653
2023-08-09,5.350563730753301
2023-08-10,5.350563730753301
2023-08-11,5.350563730753301
2023-08-14,5.411940488289421
2023-08-15,5.3936441994936635
2023-08-16,5.3712622144966335
2023-08-17,5.293599744719645
2023-08-18,5.285463756412733
2023-08-21,5.3099468429794925
2023-08-22,5.33546927352199
2023-08-23,5.370165763227911
2023-08-24,5.309692027446722
2023-08-25,5.325270941388402
2023-08-28,5.352027684779346
2023-08-29,5.403883320570383
2023-08-30,5.446965633110322
2023-08-31,5.439377490335152
2023-09-01,5.44216367582102
2023-09-05,5.391560464241382
2023-09-06,5.330016374809833
2023-09-07,5.338724974285974
2023-09-08,5.326184569779102
2023-09-11,5.326680058198654
2023-09-12,5.286300749094293
2023-09-13,5.23566643112231
2023-09-14,5.325406603731556
2023-09-15,5.286925481292942
2023-09-18,5.313497522353067
2023-09-19,5.138651814634484
2023-09-20,5.111022878947826
2023-09-21,5.111022878947826
2023-09-22,5.111022878947826
2023-09-25,5.092148499911742
2023-09-26,5.106979870076561
2023-09-27,5.126897472560115
2023-09-28,5.1531268960031476
2023-09-29,5.16009919420995
2023-10-02,5.165445144711202
2023-10-03,5.079835818015628
2023-10-04,5.100993141225547
2023-10-05,5.099274023503954
2023-10-06,5.110688702012715
2023-10-09,5.207406252245473
2023-10-10,5.235508956437413
2023-10-11,5.357971325234168
2023-10-12,5.355260944588364
2023-10-13,5.324043698097258
2023-10-16,5.365646878530956
2023-10-17,5.34619939924483
2023-10-18,5.351629202602615
2023-10-19,5.289896594623833
2023-10-20,5.164847806371714
2023-10-23,5.1600095886857975
2023-10-24,5.202095522775059
2023-10-25,5.12853358394573
2023-10-26,5.089360986851094
2023-10-27,5.092834365274417
2023-10-30,5.118315560361124
2023-10-31,5.137264926521189
2023-11-01,5.160412970717344
2023-11-02,5.198238173187905
2023-11-03,5.231397909384135
2023-11-06,5.222413032796329
2023-11-07,5.2694874645117755
2023-11-08,5.269612006541775
2023-11-09,5.244057735169601
2023-11-10,5.302770571883974
2023-11-13,5.348706043196774
2023-11-14,5.399959438760098
2023-11-15,5.389768131204632
2023-11-16,5.3350116579349365
2023-11-17,5.35572539747337
2023-11-20,5.45001636286249
2023-11-21,5.259243629605109
2023-11-22,5.249588937139405
2023-11-24,5.193679762819176
2023-11-27,5.173765091298183
2023-11-28,5.272311770226018
2023-11-29,5.451449220850579
2023-11-30,5.497446176574231
2023-12-01,5.511614356360491
2023-12-04,5.3390576088936905
2023-12-05,5.350663225377483
2023-12-06,5.35396859623056
2023-12-07,5.359477585012575
2023-12-08,5.376959478613317
2023-12-11,5.450065464890289
2023-12-12,5.473032805459709
2023-12-13,5.465893960046774
2023-12-14,5.4937551532495
2023-12-15,5.520143400030329
2023-12-18,5.512405857808682
2023-12-19,5.5186506502610655
2023-12-20,5.423552337157659
2023-12-21,5.4823909751628745
2023-12-22,5.480902014112367
2023-12-26,5.509154092079555
2023-12-27,5.561922376974849
2023-12-28,5.547063655680764
2023-12-29,5.472507208854994
2024-01-02,5.2817734991773575
2024-01-03,5.243915649138398
2024-01-04,5.243915649138398
2024-01-05,5.243915649138398
2024-01-08,5.352634469803312
2024-01-09,5.410169628434721
2024-01-10,5.396719836285157
2024-01-11,5.387006319206514
2024-01-12,5.359733050392739
2024-01-16,5.652012005171088
2024-01-17,5.584690934072832
2024-01-18,5.695582011998503
2024-01-19,5.981253129237901
2024-01-22,5.944440389564392
2024-01-23,5.935879045549947
2024-01-24,6.148500551959879
2024-01-25,6.122605489968795
2024-01-26,6.035508962959117
2024-01-29,6.143567926890581
2024-01-30,6.042164335331039
2024-01-31,5.877478212197401
2024-02-01,5.994067958846905
2024-02-02,6.167607544595353
2024-02-05,6.093398683306992
2024-02-06,5.971213174726074
2024-02-07,6.175431136776567
2024-02-08,6.195092611416033
2024-02-09,6.312684290533943
2024-02-12,6.2264909536770325
2024-02-13,6.230371282056886
2024-02-14,6.477768955691477
2024-02-15,6.4117802969229105
2024-02-16,6.337711290829041
2024-02-20,6.133010390095433
2024-02-21,5.881405164988545
2024-02-22,6.209617034332723
2024-02-23,6.10986464675493
2024-02-26,6.078882832712973
2024-02-27,6.102258264510837
2024-02-28,6.03835680531461
2024-02-29,6.388185926082269
2024-03-01,6.688798857773223
2024-03-04,6.843990088206486
2024-03-05,6.865490608330802
2024-03-06,7.064783367846427
2024-03-07,7.218856880135013
2024-03-08,6.9629001152069705
2024-03-11,6.732880914679128
2024-03-12,7.031154187101782
2024-03-13,6.835967774786425
2024-03-14,6.7320754773127796
2024-03-15,6.728299461304669
2024-03-18,6.750108600491703
2024-03-19,6.783386677791693
2024-03-20,6.817758202261329
2024-03-21,6.855270794481168
2024-03-22,6.9559864649470615
2024-03-25,7.078994645923178
2024-03-26,6.9186077605251945
2024-03-27,6.727406351257484
2024-03-28,6.748848099009619
2024-04-01,6.745161214984575
2024-04-02,6.741531306557301
2024-04-03,6.8787020720602605
2024-04-04,6.766817795903254
2024-04-05,6.940108205670121
2024-04-08,7.069276545303573
2024-04-09,6.97224690810493
2024-04-10,6.9633963972982995
2024-04-11,7.056818372449858
2024-04-12,6.925536108095606
2024-04-15,6.690600891943207
2024-04-16,6.6558347160089095
2024-04-17,6.580315203370309
2024-04-18,6.519233312062853
2024-04-19,6.499024828441451
2024-04-22,6.539971338882198
2024-04-23,6.581335829239164
2024-04-24,6.602785458121344
2024-04-25,6.499024828441452
2024-04-26,6.499024828441452
2024-04-29,6.549274199636301
2024-04-30,6.327671829651723
2024-05-01,6.183591210480937
2024-05-02,6.305716484073439
2024-05-03,6.4220260571681695
2024-05-06,6.595908595507023
2024-05-07,6.552284943275664
2024-05-08,6.4091887651256965
2024-05-09,6.830333395057362
2024-05-10,6.946935676179855
2024-05-13,6.962108535654825
2024-05-14,6.8638372782278285
2024-05-15,7.003787899834725
2024-05-16,6.957370244634573
2024-05-17,6.859829766421694
2024-05-20,7.031743848239078
2024-05-21,7.027015414616568
2024-05-22,6.8331338102542745
2024-05-23,7.1033270840908385
2024-05-24,7.32412245944216
2024-05-28,7.627164872472941
2024-05-29,7.688358622706706
2024-05-30,7.477940148367872
2024-05-31,7.40259537965937
2024-06-03,7.641123156186798
2024-06-04,7.642957033065785
2024-06-05,7.9395189504267165
2024-06-06,7.870411799749627
2024-06-07,7.807592300631576
2024-06-10,7.770063383210941
2024-06-11,7.592730916773487
2024-06-12,7.739780900796744
2024-06-13,7.890944161938058
2024-06-14,7.968754460818084
2024-06-17,7.993210649813162
2024-06-18,8.100407268642249
2024-06-20,7.8056860844892775
2024-06-21,7.515919309975058
2024-06-24,7.3071822203160846
2024-06-25,7.3071822203160846
2024-06-26,7.3071822203160846
2024-06-27,7.3071822203160846
2024-06-28,7.3071822203160846
2024-07-01,7.39689056211483
2024-07-02,7.281327768741532
2024-07-03,7.467531663027197
2024-07-05,7.418741654917577
2024-07-08,7.498638900533796
2024-07-09,7.546936387405303
2024-07-10,7.543002015970549
2024-07-11,7.2826524089558085
2024-07-12,7.345540287535854
2024-07-15,7.379238622734482
2024-07-16,7.238791376128496
2024-07-17,7.069518236332852
2024-07-18,7.069518236332852
2024-07-19,7.069518236332852
2024-07-22,7.093636077481964
2024-07-23,7.077891753707153
2024-07-24,6.71508930194996
2024-07-25,6.673547051603075
2024-07-26,6.673547051603075
2024-07-29,6.636649121084984
2024-07-30,6.597513500417437
2024-07-31,6.6249473414305005
2024-08-01,6.5911943293013255
2024-08-02,6.47289110998648
2024-08-05,6.3859865355576595
2024-08-06,6.391156020043482
2024-08-07,6.325323123429343
2024-08-08,6.358757655642947
2024-08-09,6.318173508449828
2024-08-12,6.260225957340989
2024-08-13,6.333778405098484
2024-08-14,6.368992940842673
2024-08-15,6.3846852167198715
2024-08-16,6.417812054415728
2024-08-19,6.453830092252928
2024-08-20,6.4507404331885
2024-08-21,6.47021786914635
2024-08-22,6.454037680170603
2024-08-23,6.463970737082976
2024-08-26,6.420459863644085
2024-08-27,6.420779076544702
2024-08-28,6.428520630844334
2024-08-29,6.480651887773357
2024-08-30,6.496250864608301
2024-09-03,6.46032436365398
2024-09-04,6.392366679631472
2024-09-05,6.384796558644969
2024-09-06,6.383745209222439
2024-09-09,6.414002885328758
2024-09-10,6.489407785671624
2024-09-11,6.508198787961354
2024-09-12,6.546371394624022
2024-09-13,6.52660058390605
2024-09-16,6.533803769987974
2024-09-17,6.513153436688097
2024-09-18,6.493279486351287
2024-09-19,6.514625337193966
2024-09-20,6.484986025166743
2024-09-23,6.491851823321884
2024-09-24,6.490086769191055
2024-09-25,6.447196683757521
2024-09-26,6.416797638405821
2024-09-27,6.428895584410164
2024-09-30,6.510297382854998
2024-10-01,6.514936880200233
2024-10-02,6.549788122643583
2024-10-03,6.635605715160284
2024-10-04,6.755524348212117
2024-10-07,6.7594281807961565
2024-10-08,6.86559225194042
2024-10-09,6.882562214718218
2024-10-10,6.88760882701843
2024-10-11,6.947921103878773
2024-10-14,6.907252940110013
2024-10-15,6.886090886533716
2024-10-16,6.932007668524678
2024-10-17,6.8983878839309405
2024-10-18,6.940684267270451
2024-10-21,7.274639844888492
2024-10-22,7.316846683786186
2024-10-23,7.308434800633884
2024-10-24,7.3312645705033495
2024-10-25,7.4021339573262654
2024-10-28,7.511694258710766
2024-10-29,7.649672671075205
2024-10-30,7.639278696371427
2024-10-31,7.5936411631468
2024-11-01,7.4607834927018075
2024-11-04,7.356531068365639
2024-11-05,7.51738515394949
2024-11-06,7.633411993031229
2024-11-07,9.728058506570692
2024-11-08,10.794269164623513
2024-11-11,10.713919521623152
2024-11-12,10.722482598314798
2024-11-13,10.543448542764054
2024-11-14,10.556789191615682
2024-11-15,10.722918562635023
2024-11-18,10.705401960778849
2024-11-19,11.379090294116434
2024-11-20,11.435544464065012
2024-11-21,11.220095613870624
2024-11-22,11.755826357341196
2024-11-25,11.426171620404528
2024-11-26,11.739429196611777
2024-11-27,11.725188282044625
2024-11-29,11.985217248103144
2024-12-02,12.045781191004538
2024-12-03,12.938272204056368
2024-12-04,13.060183716470785
2024-12-05,13.301015675711145
2024-12-06,14.099421594157317
2024-12-09,12.410381377058364
2024-12-10,12.328257113051048
2024-12-11,12.41299695962011
2024-12-12,12.449089524664636
2024-12-13,12.599214944458689
2024-12-16,12.89436509261141
2024-12-17,13.062724355905113
2024-12-18,12.360688501040118
2024-12-19,12.501921179573351
2024-12-20,12.83355701449308
2024-12-23,12.789448124858472
2024-12-24,12.822630954440283
2024-12-26,12.900568213729702
2024-12-27,12.527020258144486
2024-12-30,12.431512123225927
2024-12-31,12.137133944473486
2025-01-02,12.44561025929645
2025-01-03,12.855266447709399
2025-01-06,12.726642660432725
2025-01-07,11.956151391345346
2025-01-08,11.917408460003355
2025-01-10,11.71943688834915
2025-01-13,11.749028767664102
2025-01-14,11.85022818018481
2025-01-15,12.12831298235168
2025-01-16,12.113321175995438
2025-01-17,12.489405093183988
2025-01-21,12.391165101279388
2025-01-22,12.85891976889936
2025-01-23,12.895631806166609
2025-01-24,12.853691152685375
2025-01-27,12.172628816074901
2025-01-28,12.50005770979843
2025-01-29,12.603290940632043
2025-01-30,12.587963167548772
2025-01-31,12.663310300203902
2025-02-03,12.726153429272383
2025-02-04,13.775005917007938
2025-02-05,13.458276341944547
2025-02-06,14.069293694878546
2025-02-07,13.962026850641308
2025-02-10,14.346115171497075
2025-02-11,14.021641951014466
2025-02-12,14.299320534844316
2025-02-13,16.006390477793023
2025-02-14,16.764880894219363
2025-02-18,16.714606788116964
2025-02-19,16.196189177639177
2025-02-20,14.666739273871634
2025-02-21,14.666739273871634
2025-02-24,14.654186641163003
2025-02-25,14.35692382332616
2025-02-26,14.226737095655485
2025-02-27,14.226737095655485
2025-02-28,14.226737095655485
2025-03-03,14.241480347293628
2025-03-04,14.100103643700269
2025-03-05,14.078431696275194
2025-03-06,14.097005736864475
2025-03-07,14.139417573837278
2025-03-10,14.126724978711458
2025-03-11,14.126724978711458
2025-03-12,14.126724978711458
2025-03-13,14.126724978711458
2025-03-14,14.126724978711458
2025-03-17,14.126724978711458
2025-03-18,14.126724978711458
2025-03-19,14.126724978711458
2025-03-20,14.126724978711458
2025-03-21,14.126724978711458
2025-03-24,14.126724978711458
2025-03-25,14.126724978711458
2025-03-26,14.126724978711458
2025-03-27,14.126724978711458
2025-03-28,14.126724978711458
2025-03-31,14.126724978711458
2025-04-01,14.126724978711458
2025-04-02,14.126724978711458
2025-04-03,14.126724978711458
2025-04-04,14.126724978711458
2025-04-07,14.126724978711458
2025-04-08,14.126724978711458
2025-04-09,14.126724978711458
2025-04-10,14.126724978711458
2025-04-11,14.126724978711458
2025-04-14,14.126724978711458
2025-04-15,14.126724978711458
2025-04-16,14.126724978711458
2025-04-17,14.126724978711458
2025-04-21,14.126724978711458
2025-04-22,14.126724978711458
2025-04-23,14.126724978711458
2025-04-24,14.126724978711458
2025-04-25,14.126724978711458
2025-04-28,14.126724978711458
2025-04-29,14.126724978711458
2025-04-30,14.126724978711458
2025-05-01,14.126724978711458
2025-05-02,14.126724978711458
2025-05-05,14.126724978711458
2025-05-06,14.126724978711458
2025-05-07,14.126724978711458
2025-05-08,14.126724978711458
2025-05-09,14.126724978711458
2025-05-12,14.126724978711458
2025-05-13,14.126724978711458
2025-05-14,14.126724978711458
2025-05-15,14.126724978711458
2025-05-16,14.126724978711458
2025-05-19,14.228700548566147
2025-05-20,14.189148664604433
2025-05-21,13.967846018290569
2025-05-22,14.075777689632847
2025-05-23,13.86418324785534
2025-05-27,13.998594162805777
2025-05-28,14.007313458285306
2025-05-29,13.911436106476156
2025-05-30,14.496048502068827
2025-06-02,14.593491769846727
2025-06-03,14.681689191280135
2025-06-04,14.425076105958397
2025-06-05,13.87439771852191
2025-06-06,13.91809192243555
2025-06-09,13.869855824050616
2025-06-10,13.912499094977147
2025-06-11,14.112257643078678
2025-06-12,13.996815515514694
2025-06-13,13.853932836062269
2025-06-16,14.184164887721806
2025-06-17,13.831938691197541
2025-06-18,13.809172716134352
2025-06-20,13.658520664334677
2025-06-23,13.962494795983686
2025-06-24,14.111062921459428
2025-06-25,14.160832029369857
2025-06-26,14.273659619100922
2025-06-27,13.537096461259967
2025-06-30,13.826286596159417
2025-07-01,13.283589546651502
2025-07-02,13.365145570609137
2025-07-03,13.492010592787379
2025-07-07,13.690291353726064
2025-07-08,13.779751727510337
2025-07-09,14.006222967799552
2025-07-10,13.962769424681703
2025-07-11,13.828791474214157
2025-07-14,14.195981591045534
2025-07-15,14.306114037749545
2025-07-16,14.5970379418867
2025-07-17,14.958270033483334
2025-07-18,14.8489106178957
2025-07-21,14.703040285646061
2025-07-22,14.412845260294302
2025-07-23,14.822767900452686
2025-07-24,14.85911164553574
2025-07-25,15.139674562320804
2025-07-28,15.152508256051398
2025-07-29,15.116540730332956
2025-07-30,15.266313367756993
2025-07-31,15.331069233874569
2025-08-01,14.865562761895136
2025-08-04,15.430808062542813
2025-08-05,16.223717457787117
2025-08-06,16.59787963123079
2025-08-07,16.572018805077555
2025-08-08,16.858155337091105
2025-08-11,16.681693628988292
2025-08-12,16.954249110094583
2025-08-13,16.564288717937607
2025-08-14,16.39411584548367
2025-08-15,16.25930847096469
2025-08-18,16.10127970770735
2025-08-19,15.440822203693887
2025-08-20,15.440822203693887
2025-08-21,15.440822203693887
2025-08-22,15.440822203693887
2025-08-25,15.610762220224196
2025-08-26,15.955332332181595
2025-08-27,15.79062934240666
2025-08-28,16.246026244973134
2025-08-29,16.141287296919614
2025-09-02,16.07347702110123
2025-09-03,16.236746183902973
2025-09-04,16.728450337708537
2025-09-05,16.64944358450745
2025-09-08,17.612487723857356
2025-09-09,17.655157723501098
2025-09-10,17.74407441063827
2025-09-11,17.97277483378355
2025-09-12,18.069712604055017
2025-09-15,18.512428421928753
2025-09-16,18.662046098000964
2025-09-17,18.74839596941961
2025-09-18,19.241531016275637
2025-09-19,19.798996655858787
2025-09-22,19.901745471963004
2025-09-23,19.642573241756722
2025-09-24,19.41931851995014
2025-09-25,19.092631544899326
2025-09-26,19.617788058990214
2025-09-29,20.353879429537358
2025-09-30,20.250158599518805
2025-10-01,20.541818366300646
2025-10-02,20.493382632039967
2025-10-03,20.370770885244987
2025-10-06,19.734767292927053
2025-10-07,19.867033928733463
2025-10-08,19.92632655886634
2025-10-09,20.01070359567021
2025-10-10,19.684596739726793
2025-10-13,19.709345012646654
2025-10-14,19.421455304464907
2025-10-15,20.68556751195068
2025-10-16,20.434149669758416
2025-10-17,20.406712048902552
2025-10-20,20.98988813659685
2025-10-21,20.881273895115612
2025-10-22,20.258697536363446
2025-10-23,20.754406937582228
2025-10-24,21.583840646129342
2025-10-27,22.173130665835178
2025-10-28,22.552685621166308
2025-10-29,22.792070692828883
2025-10-30,22.098456611758788
2025-10-31,22.11694770236682
2025-11-03,22.16311304852832
2025-11-04,21.170397816827048
2025-11-05,21.759185988014206
2025-11-06,20.66583134010449
2025-11-07,20.579591757300854
2025-11-10,20.876129214647598
2025-11-11,20.23579993734011
2025-11-12,20.396751032892894
2025-11-13,19.68878221706252
2025-11-14,20.102415525038104
2025-11-17,19.751259868636204
2025-11-18,19.163164340451374
2025-11-19,18.72252182138543
2025-11-20,18.606133248787213
2025-11-21,18.606133248787213
2025-11-24,18.732221407797066
2025-11-25,18.96341458986088
2025-11-26,18.89463059144584
2025-11-28,18.870982503194426
2025-12-01,18.60756147901394
2025-12-02,18.571616962181817
2025-12-03,18.516400322717086
2025-12-04,18.48101806007686
2025-12-05,18.508377715270818
2025-12-08,18.342527168838966
2025-12-09,18.392793067529695
2025-12-10,18.43961872502193
2025-12-11,18.323228009648133
2025-12-12,18.276253412098704
2025-12-15,18.222719102597313
2025-12-16,18.155817780060023
2025-12-17,17.89697846060525
2025-12-18,17.987840887238526
2025-12-19,18.038397348298915
2025-12-22,18.065231493043846
2025-12-23,18.07594825366853
2025-12-24,18.426368123778097
2025-12-26,18.383940864978996
2025-12-29,18.72149972984574
2025-12-30,18.610992189139623
2025-12-31,18.322713908444534
2026-01-02,19.512150586398604
2026-01-05,19.673452028640643
2026-01-06,20.90118812304305
2026-01-07,20.707897945101685
2026-01-08,20.113989152271152
2026-01-09,21.045385750219733
2026-01-12,21.176218099113385
2026-01-13,20.881503165495264
2026-01-14,20.67315241785397
2026-01-15,21.07924239870978
2026-01-16,22.07262972916351
2026-01-20,21.99379530997424
2026-01-21,22.905355148313078
2026-01-22,23.07074961346449
2026-01-23,23.200927955655345
2026-01-26,22.804282387917304
2026-01-27,23.72729126626632
2026-01-28,24.617718546677636
2026-01-29,24.71416898043789
2026-01-30,23.698776360929358
2026-02-02,24.555198850036092
2026-02-03,23.784736746472525
2026-02-04,22.00125723636644
2026-02-05,22.00125723636644
2026-02-06,22.00125723636644
2026-02-09,22.04834176359917
2026-02-10,21.836119311222546
2026-02-11,22.576397398693434
2026-02-12,22.536856370696853
2026-02-13,22.605316373302713
2026-02-17,22.434871507946823
2026-02-18,22.849062203913146
2026-02-19,22.732200214796276
2026-02-20,23.06938438717276
2026-02-23,22.901710095110513
2026-02-24,22.90649822594613
2026-02-25,23.190897376491517
2026-02-26,22.746687829369183
2026-02-27,22.576185402131586
2026-03-02,22.463313437277215
2026-03-03,22.00125723636644
2026-03-04,22.00125723636644
2026-03-05,22.00125723636644
2026-03-06,22.00125723636644
2026-03-09,22.389063991667577
2026-03-10,22.36794753065606
2026-03-11,22.522480112990294
2026-03-12,21.905152280937045
2026-03-13,21.789828037385853
2026-03-16,21.63580220183743
2026-03-17,21.87875200221745
2026-03-18,21.879240898592634
2026-03-19,21.665972440923305
2026-03-20,21.404945035140187
2026-03-23,21.444642609486674
2026-03-24,21.444642609486674
2026-03-25,21.444642609486674
2026-03-26,21.444642609486674
2026-03-27,21.444642609486674
2026-03-30,21.444642609486674
2026-03-31,21.444642609486674
2026-04-01,21.444642609486674
2026-04-02,21.444642609486674
2026-04-06,21.444642609486674
2026-04-07,21.444642609486674
2026-04-08,21.444642609486674
2026-04-09,21.444642609486674
2026-04-10,21.444642609486674
2026-04-13,22.071685774083715
2026-04-14,22.04416404525106
2026-04-15,22.30254561182367
2026-04-16,22.814957730631306
2026-04-17,23.336348424961855
2026-04-20,23.525877523389823
2026-04-21,23.908714496154232
2026-04-22,24.233814298069888
2026-04-23,25.173985390116762
2026-04-24,27.788517638642617
2026-04-27,27.70775551349108
2026-04-28,27.21586538988185
2026-04-29,29.255473225881737
2026-04-30,29.916750434435443
2026-05-01,30.786592664191033
2026-05-04,30.017999829974524
2026-05-05,32.57100022848491
2026-05-06,33.68955305931892
2026-05-07,32.103450538841734
2026-05-08,35.5766672420259
2026-05-11,36.41467010970314
2026-05-12,34.36898454592537
2026-05-13,35.423407446313
2026-05-14,35.05353694004882
2026-05-15,33.36410737456822
2026-05-18,32.37289666207827
2026-05-19,32.7056293792186
2026-05-20,34.892378994222106
2026-05-21,35.292309947873925
2026-05-22,36.46202447605703
2026-05-26,38.87630317513018
2026-05-27,37.52382737859616
