Date,Value
2018-01-02,1.0
2018-01-03,1.0
2018-01-04,1.0
2018-01-05,1.0
2018-01-08,1.0243276923826676
2018-01-09,1.02299762261486
2018-01-10,1.0174173973635758
2018-01-11,1.0211812661577055
2018-01-12,1.0218670095042373
2018-01-16,1.0110189039761224
2018-01-17,1.0033537155457175
2018-01-18,1.0055327852413491
2018-01-19,1.0107595204705695
2018-01-22,1.026664149269341
2018-01-23,1.037050600209165
2018-01-24,1.0315899809014624
2018-01-25,1.0377177153835087
2018-01-26,1.0803215376620305
2018-01-29,1.08553545609109
2018-01-30,1.0652055521596158
2018-01-31,1.0652055521596158
2018-02-01,1.0652055521596158
2018-02-02,1.0652055521596158
2018-02-05,1.0491902759003398
2018-02-06,1.051334479540952
2018-02-07,1.0501554237849444
2018-02-08,1.0354580356803633
2018-02-09,1.026249298101283
2018-02-12,1.0418160890561756
2018-02-13,1.0382298038881292
2018-02-14,1.070024551482165
2018-02-15,1.085356357041428
2018-02-16,1.0827017207904257
2018-02-20,1.0936564283013153
2018-02-21,1.0756318292338105
2018-02-22,1.0753443825668487
2018-02-23,1.0891388652497702
2018-02-26,1.0959942306721386
2018-02-27,1.0952742785938752
2018-02-28,1.0972022252616047
2018-03-01,1.0933649741770683
2018-03-02,1.1040038566880157
2018-03-05,1.1096266835278303
2018-03-06,1.1142460564163699
2018-03-07,1.1187613870509119
2018-03-08,1.1265227645716727
2018-03-09,1.1301641640854705
2018-03-12,1.1215713318206686
2018-03-13,1.1107188401672752
2018-03-14,1.1069779669638171
2018-03-15,1.082622318977489
2018-03-16,1.0751427312219648
2018-03-19,1.0721884403216
2018-03-20,1.0801076443410218
2018-03-21,1.078883227733105
2018-03-22,1.0609851148099199
2018-03-23,1.0409921393581563
2018-03-26,1.0611263454094952
2018-03-27,1.0330414689278058
2018-03-28,1.024118599294154
2018-03-29,1.024118599294154
2018-04-02,1.0053968935343671
2018-04-03,1.0114149268979211
2018-04-04,1.0183435056438155
2018-04-05,1.0285300540293532
2018-04-06,1.0248879376261706
2018-04-09,1.0154036836519489
2018-04-10,1.0200930683702403
2018-04-11,1.0192847671632386
2018-04-12,1.028135636919997
2018-04-13,1.0203413493051294
2018-04-16,1.0255450503989003
2018-04-17,1.0350566601750524
2018-04-18,1.0357976028195064
2018-04-19,1.0310967071629529
2018-04-20,1.028390719052201
2018-04-23,1.0287452638553176
2018-04-24,1.0186761567156681
2018-04-25,1.016986720782942
2018-04-26,1.026838328453342
2018-04-27,1.0250625105735822
2018-04-30,1.0247693556429307
2018-05-01,1.0299537071149025
2018-05-02,1.030132826785795
2018-05-03,1.031256538501653
2018-05-04,1.0368870424825731
2018-05-07,1.04430504430138
2018-05-08,1.053108705411029
2018-05-09,1.0659962612162677
2018-05-10,1.0666171454133448
2018-05-11,1.0623757054239253
2018-05-14,1.0551358341938872
2018-05-15,1.0561151276333267
2018-05-16,1.0535370554503556
2018-05-17,1.053248417433575
2018-05-18,1.0571565889549288
2018-05-21,1.0642106556557769
2018-05-22,1.0616439613503288
2018-05-23,1.0714453524869745
2018-05-24,1.0759225965555532
2018-05-25,1.0742664877212018
2018-05-29,1.0706191935231422
2018-05-30,1.0792878240648531
2018-05-31,1.0792336570029808
2018-06-01,1.0831673559448372
2018-06-04,1.077144656600932
2018-06-05,1.0763978692781975
2018-06-06,1.0778564396589139
2018-06-07,1.0703418822086928
2018-06-08,1.0746592647794646
2018-06-11,1.0927954135883826
2018-06-12,1.0988925591197507
2018-06-13,1.1196370057106846
2018-06-14,1.1194613306507195
2018-06-15,1.1109566354632148
2018-06-18,1.1418617188129492
2018-06-19,1.147072154477165
2018-06-20,1.1572678903721996
2018-06-21,1.124698834105136
2018-06-22,1.124017136197148
2018-06-25,1.0790167341556716
2018-06-26,1.0790167341556716
2018-06-27,1.0790167341556716
2018-06-28,1.0790167341556716
2018-06-29,1.0790167341556716
2018-07-02,1.066345409718529
2018-07-03,1.0609845994808325
2018-07-05,1.0664923759508986
2018-07-06,1.0733928209909545
2018-07-09,1.077026242519002
2018-07-10,1.0727542716638236
2018-07-11,1.0658403868780553
2018-07-12,1.0715860156243282
2018-07-13,1.049848992468759
2018-07-16,1.063118915951756
2018-07-17,1.0619501719963136
2018-07-18,1.0613053385651057
2018-07-19,1.0567915660413503
2018-07-20,1.0500209994977678
2018-07-23,1.040613870796815
2018-07-24,1.0111998361267516
2018-07-25,1.0233028689113919
2018-07-26,1.0957108607405557
2018-07-27,1.1020382607476886
2018-07-30,1.104217246413315
2018-07-31,1.0897894377090087
2018-08-01,1.0897894377090087
2018-08-02,1.0897894377090087
2018-08-03,1.0897894377090087
2018-08-06,1.0999033328943517
2018-08-07,1.1055479128740051
2018-08-08,1.0830725408837876
2018-08-09,1.0692266317219015
2018-08-10,1.068072778449035
2018-08-13,1.0808194289390922
2018-08-14,1.0991765049863456
2018-08-15,1.085559243765865
2018-08-16,1.078054450540906
2018-08-17,1.0962704906300318
2018-08-20,1.1043589106615757
2018-08-21,1.116392843363203
2018-08-22,1.1426758672909731
2018-08-23,1.1973935719315745
2018-08-24,1.226149443061837
2018-08-27,1.246874305026898
2018-08-28,1.2579535401718809
2018-08-29,1.2854360940303122
2018-08-30,1.274552110062417
2018-08-31,1.286054658359358
2018-09-04,1.2951751543924033
2018-09-05,1.2870150222132597
2018-09-06,1.2942973409810696
2018-09-07,1.2901958498026795
2018-09-10,1.3095331620279942
2018-09-11,1.3098666476345866
2018-09-12,1.3214538696352174
2018-09-13,1.3122638954206747
2018-09-14,1.3122638954206747
2018-09-17,1.301749141436682
2018-09-18,1.3161141457847065
2018-09-19,1.3109932527218269
2018-09-20,1.3100978748206353
2018-09-21,1.302651663730702
2018-09-24,1.3059052023982392
2018-09-25,1.3092250672204324
2018-09-26,1.3023034705325098
2018-09-27,1.2902283280777485
2018-09-28,1.296325693202204
2018-10-01,1.2881221940033687
2018-10-02,1.2794871259425655
2018-10-03,1.2763748446462038
2018-10-04,1.2752350900268117
2018-10-05,1.2701421574044511
2018-10-08,1.2697208439340417
2018-10-09,1.2739518764266127
2018-10-10,1.25254647942288
2018-10-11,1.25254647942288
2018-10-12,1.25254647942288
2018-10-15,1.2546573939566013
2018-10-16,1.2605456765023788
2018-10-17,1.2677117234132669
2018-10-18,1.2651563452740135
2018-10-19,1.2652674312115502
2018-10-22,1.2659500312885055
2018-10-23,1.2675972751875768
2018-10-24,1.2626501609924066
2018-10-25,1.2729203236689846
2018-10-26,1.2671955450092476
2018-10-29,1.2724385883579945
2018-10-30,1.2724385883579945
2018-10-31,1.2724385883579945
2018-11-01,1.2724385883579945
2018-11-02,1.2724385883579945
2018-11-05,1.2724385883579945
2018-11-06,1.2724385883579945
2018-11-07,1.2724385883579945
2018-11-08,1.2724385883579945
2018-11-09,1.2724385883579945
2018-11-12,1.2724385883579945
2018-11-13,1.2724385883579945
2018-11-14,1.2724385883579945
2018-11-15,1.2724385883579945
2018-11-16,1.2724385883579945
2018-11-19,1.2724385883579945
2018-11-20,1.2724385883579945
2018-11-21,1.2724385883579945
2018-11-23,1.2724385883579945
2018-11-26,1.2724385883579945
2018-11-27,1.2724385883579945
2018-11-28,1.2724385883579945
2018-11-29,1.2724385883579945
2018-11-30,1.2724385883579945
2018-12-03,1.2724385883579945
2018-12-04,1.2724385883579945
2018-12-06,1.2724385883579945
2018-12-07,1.2724385883579945
2018-12-10,1.2724385883579945
2018-12-11,1.2724385883579945
2018-12-12,1.2724385883579945
2018-12-13,1.2724385883579945
2018-12-14,1.2724385883579945
2018-12-17,1.2724385883579945
2018-12-18,1.2724385883579945
2018-12-19,1.2724385883579945
2018-12-20,1.2724385883579945
2018-12-21,1.2724385883579945
2018-12-24,1.2724385883579945
2018-12-26,1.2724385883579945
2018-12-27,1.2724385883579945
2018-12-28,1.2724385883579945
2018-12-31,1.2724385883579945
2019-01-02,1.2724385883579945
2019-01-03,1.2724385883579945
2019-01-04,1.2724385883579945
2019-01-07,1.2724385883579945
2019-01-08,1.2724385883579945
2019-01-09,1.2724385883579945
2019-01-10,1.2724385883579945
2019-01-11,1.2724385883579945
2019-01-14,1.2724385883579945
2019-01-15,1.2724385883579945
2019-01-16,1.2724385883579945
2019-01-17,1.2724385883579945
2019-01-18,1.2724385883579945
2019-01-22,1.2724385883579945
2019-01-23,1.2724385883579945
2019-01-24,1.2724385883579945
2019-01-25,1.2724385883579945
2019-01-28,1.2724385883579945
2019-01-29,1.2724385883579945
2019-01-30,1.2724385883579945
2019-01-31,1.2724385883579945
2019-02-01,1.2724385883579945
2019-02-04,1.2724385883579945
2019-02-05,1.2724385883579945
2019-02-06,1.2724385883579945
2019-02-07,1.2724385883579945
2019-02-08,1.2724385883579945
2019-02-11,1.2724385883579945
2019-02-12,1.2724385883579945
2019-02-13,1.2724385883579945
2019-02-14,1.2724385883579945
2019-02-15,1.2724385883579945
2019-02-19,1.2678153665142342
2019-02-20,1.2774745919179167
2019-02-21,1.2821570470585488
2019-02-22,1.3032079884099013
2019-02-25,1.3153799622531541
2019-02-26,1.264070187875289
2019-02-27,1.2592879976878166
2019-02-28,1.2553852899069178
2019-03-01,1.2577057392602515
2019-03-04,1.2344787690662398
2019-03-05,1.2107569959833873
2019-03-06,1.2184476866155451
2019-03-07,1.227905134490876
2019-03-08,1.2420393510178305
2019-03-11,1.271139187584588
2019-03-12,1.2743609703546823
2019-03-13,1.2863127080593433
2019-03-14,1.3085532971521836
2019-03-15,1.3111514975535976
2019-03-18,1.3383018614394873
2019-03-19,1.3484620536528065
2019-03-20,1.3671162917101398
2019-03-21,1.4429020528410306
2019-03-22,1.3935587269659957
2019-03-25,1.3698678718647725
2019-03-26,1.366533082725203
2019-03-27,1.3474507331724352
2019-03-28,1.3474970241673578
2019-03-29,1.351387658612372
2019-04-01,1.3439622743579704
2019-04-02,1.3304924775357276
2019-04-03,1.3248121281665035
2019-04-04,1.2603491780875724
2019-04-05,1.2603491780875724
2019-04-08,1.2476740200975263
2019-04-09,1.2355107438094506
2019-04-10,1.2823554504184818
2019-04-11,1.2820844967067182
2019-04-12,1.2791958786295017
2019-04-15,1.2770282856415087
2019-04-16,1.2591262237647425
2019-04-17,1.2339912145615728
2019-04-18,1.2381645678637354
2019-04-22,1.2657250933125104
2019-04-23,1.2979095025314131
2019-04-24,1.3095244193631461
2019-04-25,1.2783182776418842
2019-04-26,1.2953127524698589
2019-04-29,1.2958650609095224
2019-04-30,1.2858708914676935
2019-05-01,1.2697187098576554
2019-05-02,1.3081920883649159
2019-05-03,1.323309854325876
2019-05-06,1.2976812171152794
2019-05-07,1.2515351419819907
2019-05-08,1.2464224411212037
2019-05-09,1.2355494275932444
2019-05-10,1.2355494275932444
2019-05-13,1.2396831589317072
2019-05-14,1.2592407327591362
2019-05-15,1.2655802546372694
2019-05-16,1.2658194095177642
2019-05-17,1.2488549168522705
2019-05-20,1.2352003299258458
2019-05-21,1.2345482501901965
2019-05-22,1.23256914385471
2019-05-23,1.2389640149018282
2019-05-24,1.2457592876240806
2019-05-28,1.2549246697650034
2019-05-29,1.2285716655621552
2019-05-30,1.2361458333912376
2019-05-31,1.2241026755812483
2019-06-03,1.2234078689467203
2019-06-04,1.2234078689467203
2019-06-05,1.2234078689467203
2019-06-06,1.2234078689467203
2019-06-07,1.2234078689467203
2019-06-10,1.2189568353856512
2019-06-11,1.1857869012964026
2019-06-12,1.2042563732706473
2019-06-13,1.2002961758117678
2019-06-14,1.192031030894042
2019-06-17,1.1909740880968935
2019-06-18,1.1926649027865714
2019-06-19,1.2296042546466732
2019-06-20,1.2286455378875356
2019-06-21,1.2149033349918508
2019-06-24,1.1870869877955352
2019-06-25,1.1559183689360546
2019-06-26,1.1508148040770143
2019-06-27,1.152205823091461
2019-06-28,1.1532611051429562
2019-07-01,1.1532998519132531
2019-07-02,1.174018913311019
2019-07-03,1.1828072850523585
2019-07-05,1.1879934368516905
2019-07-08,1.193478565297454
2019-07-09,1.2054364197503584
2019-07-10,1.1930496274644362
2019-07-11,1.1866109042718727
2019-07-12,1.1849376592447651
2019-07-15,1.2109742915123118
2019-07-16,1.1881527713396678
2019-07-17,1.2005142713026857
2019-07-18,1.2274187532562646
2019-07-19,1.2042410952182503
2019-07-22,1.2232274595925108
2019-07-23,1.212442347670124
2019-07-24,1.2354005221542954
2019-07-25,1.235094890540858
2019-07-26,1.2430626355443466
2019-07-29,1.2110414119407762
2019-07-30,1.1823430740445295
2019-07-31,1.177027937852108
2019-08-01,1.2248152178059888
2019-08-02,1.19674092584102
2019-08-05,1.1654872771477955
2019-08-06,1.1705336679423661
2019-08-07,1.1712749642532834
2019-08-08,1.1745181766932138
2019-08-09,1.174610879811747
2019-08-12,1.1701017873262876
2019-08-13,1.1774119434245467
2019-08-14,1.1590019068486006
2019-08-15,1.159503599008107
2019-08-16,1.1686902414770497
2019-08-19,1.171591721382666
2019-08-20,1.178909772711946
2019-08-21,1.1929148898016004
2019-08-22,1.1924091833063954
2019-08-23,1.1822539223407538
2019-08-26,1.1983690821352662
2019-08-27,1.2059161995514638
2019-08-28,1.1992027133168293
2019-08-29,1.1986794997381063
2019-08-30,1.1808462367932524
2019-09-03,1.1814257266351054
2019-09-04,1.1753256587444292
2019-09-05,1.1801134132908826
2019-09-06,1.1706608843733561
2019-09-09,1.1455701749819949
2019-09-10,1.1486494584385047
2019-09-11,1.1615586018107462
2019-09-12,1.1610847625581566
2019-09-13,1.1617954519523526
2019-09-16,1.166858654966434
2019-09-17,1.1803734341621381
2019-09-18,1.196496798225417
2019-09-19,1.185800307638484
2019-09-20,1.1714660542896862
2019-09-23,1.1845590893988687
2019-09-24,1.1675573957764072
2019-09-25,1.1944257478617957
2019-09-26,1.1892755744376178
2019-09-27,1.1523807816686071
2019-09-30,1.1577925164302822
2019-10-01,1.1524910023202937
2019-10-02,1.1372065072534405
2019-10-03,1.1457654528838894
2019-10-04,1.1668004677015924
2019-10-07,1.1651515260368157
2019-10-08,1.1348206995806218
2019-10-09,1.1528688881343356
2019-10-10,1.1544403994592445
2019-10-11,1.168233864203081
2019-10-14,1.1625918138585885
2019-10-15,1.183341471129936
2019-10-16,1.1631048674442819
2019-10-17,1.1718767001377528
2019-10-18,1.161960813398177
2019-10-21,1.1842813669224883
2019-10-22,1.1753435862971122
2019-10-23,1.1576307044332208
2019-10-24,1.2363882358635463
2019-10-25,1.246533962997109
2019-10-28,1.2789653925752784
2019-10-29,1.2559245981820957
2019-10-30,1.2674263152233758
2019-10-31,1.2230502774004357
2019-11-01,1.2230502774004357
2019-11-04,1.2240873126527698
2019-11-05,1.2232741875850284
2019-11-06,1.2361277690811114
2019-11-07,1.2504755120379858
2019-11-08,1.2504605343155735
2019-11-11,1.262802699790889
2019-11-12,1.2694748162193463
2019-11-13,1.2674049401581087
2019-11-14,1.279442943567767
2019-11-15,1.3036817874986133
2019-11-18,1.2973064627762054
2019-11-19,1.3028463624720985
2019-11-20,1.2829214881709539
2019-11-21,1.2656490506510694
2019-11-22,1.228742549232185
2019-11-25,1.2190144086238095
2019-11-26,1.1933319176405122
2019-11-27,1.2040932684656966
2019-11-29,1.1976405183049357
2019-12-02,1.1999045476042218
2019-12-03,1.2049218379622726
2019-12-04,1.2115529531578066
2019-12-05,1.205717989795425
2019-12-06,1.2157229147095996
2019-12-09,1.2113301120501934
2019-12-10,1.235874384333971
2019-12-11,1.2432284064991759
2019-12-12,1.2561494513649913
2019-12-13,1.2538477394018495
2019-12-16,1.3087285992678392
2019-12-17,1.2927088200215162
2019-12-18,1.3217490864884507
2019-12-19,1.3431678264370328
2019-12-20,1.35106104512442
2019-12-23,1.3730094141827984
2019-12-24,1.3876270172573308
2019-12-26,1.395023767645122
2019-12-27,1.3914524174493406
2019-12-30,1.3676306806217604
2019-12-31,1.3706036991542567
2020-01-02,1.3670461497178952
2020-01-03,1.3600479159124643
2020-01-06,1.3695907401213536
2020-01-07,1.3699320113023021
2020-01-08,1.3795074287139024
2020-01-09,1.3973864691635072
2020-01-10,1.3826297707408224
2020-01-13,1.386691766928025
2020-01-14,1.3935675933601117
2020-01-15,1.4036047113951753
2020-01-16,1.4122099744240222
2020-01-17,1.4292363174772156
2020-01-21,1.406227041022376
2020-01-22,1.411602191124177
2020-01-23,1.415562799641691
2020-01-24,1.3963254657693467
2020-01-27,1.3739175354918474
2020-01-28,1.379526815507152
2020-01-29,1.388427154579178
2020-01-30,1.426214080299944
2020-01-31,1.4323792316550688
2020-02-03,1.4854587015933944
2020-02-04,1.5102884490903308
2020-02-05,1.4836973152621962
2020-02-06,1.4836973152621962
2020-02-07,1.4836973152621962
2020-02-10,1.525663928410558
2020-02-11,1.5283102841003864
2020-02-12,1.6248173232717171
2020-02-13,1.6426568927722973
2020-02-14,1.6452951237787767
2020-02-18,1.6836883410899355
2020-02-19,1.757788344600077
2020-02-20,1.740324396822968
2020-02-21,1.6861444009581357
2020-02-24,1.6257297734465774
2020-02-25,1.6050726133716988
2020-02-26,1.6090522782862806
2020-02-27,1.5856633271293759
2020-02-28,1.5856633271293759
2020-03-02,1.6025841889959924
2020-03-03,1.5846442744233369
2020-03-04,1.639745032015909
2020-03-05,1.6189520477217734
2020-03-06,1.6141492590308752
2020-03-09,1.5522379692944202
2020-03-10,1.5522379692944202
2020-03-11,1.5522379692944202
2020-03-12,1.5522379692944202
2020-03-13,1.5522379692944202
2020-03-16,1.5522379692944202
2020-03-17,1.5522379692944202
2020-03-18,1.5522379692944202
2020-03-19,1.5522379692944202
2020-03-20,1.5522379692944202
2020-03-23,1.5522379692944202
2020-03-24,1.5522379692944202
2020-03-25,1.5522379692944202
2020-03-26,1.5522379692944202
2020-03-27,1.5522379692944202
2020-03-30,1.5522379692944202
2020-03-31,1.5522379692944202
2020-04-01,1.5522379692944202
2020-04-02,1.5522379692944202
2020-04-03,1.5522379692944202
2020-04-06,1.5522379692944202
2020-04-07,1.5522379692944202
2020-04-08,1.5522379692944202
2020-04-09,1.5522379692944202
2020-04-13,1.5402316417692887
2020-04-14,1.6208587731280957
2020-04-15,1.675498267318791
2020-04-16,1.702281181079464
2020-04-17,1.6908069005446746
2020-04-20,1.728509527587947
2020-04-21,1.6588879409415243
2020-04-22,1.6588879409415243
2020-04-23,1.6588879409415243
2020-04-24,1.6588879409415243
2020-04-27,1.593280747296679
2020-04-28,1.5717756332345467
2020-04-29,1.5692650630316638
2020-04-30,1.5596261826157125
2020-05-01,1.5312128063814523
2020-05-04,1.616721525031692
2020-05-05,1.6715703072276273
2020-05-06,1.6570133498738844
2020-05-07,1.6634145835589258
2020-05-08,1.7115987486055948
2020-05-11,1.7182437825244052
2020-05-12,1.6921719353600728
2020-05-13,1.6838753603008045
2020-05-14,1.67480125901844
2020-05-15,1.683295456320105
2020-05-18,1.624350894054158
2020-05-19,1.636925354198301
2020-05-20,1.692326106387545
2020-05-21,1.6960010175984044
2020-05-22,1.7340019238593225
2020-05-26,1.6376212161666617
2020-05-27,1.6199520946208428
2020-05-28,1.6199520946208428
2020-05-29,1.6199520946208428
2020-06-01,1.6731577809353357
2020-06-02,1.660920760109716
2020-06-03,1.65752555414635
2020-06-04,1.6082945819851113
2020-06-05,1.5752561421956424
2020-06-08,1.579653521071295
2020-06-09,1.5717188383920937
2020-06-10,1.5971244492159693
2020-06-11,1.5400529640461795
2020-06-12,1.533080855766289
2020-06-15,1.5972950009935099
2020-06-16,1.6220444820033242
2020-06-17,1.6076752048251608
2020-06-18,1.6212553358854023
2020-06-19,1.6054418557858372
2020-06-22,1.6547704756612283
2020-06-23,1.6406769510108066
2020-06-24,1.6196250478868444
2020-06-25,1.6418388173572143
2020-06-26,1.5695119140528322
2020-06-29,1.5501617557890217
2020-06-30,1.5835924703660411
2020-07-01,1.568213782118654
2020-07-02,1.5827006894754359
2020-07-06,1.5581376089443473
2020-07-07,1.5627876251844146
2020-07-08,1.6129993455911324
2020-07-09,1.6423092439032612
2020-07-10,1.6416854292562237
2020-07-13,1.55674165980473
2020-07-14,1.5471361660624945
2020-07-15,1.5471361660624945
2020-07-16,1.5471361660624945
2020-07-17,1.5471361660624945
2020-07-20,1.6438286869953853
2020-07-21,1.593378939786371
2020-07-22,1.5948990212576497
2020-07-23,1.503421099175187
2020-07-24,1.5000923747174073
2020-07-27,1.5813904526090972
2020-07-28,1.5520840034274381
2020-07-29,1.580206301490819
2020-07-30,1.5971225532383386
2020-07-31,1.5768710806922743
2020-08-03,1.621301399821152
2020-08-04,1.6096535243746337
2020-08-05,1.60948638444736
2020-08-06,1.55924299407465
2020-08-07,1.5398187256051301
2020-08-10,1.4964363114416077
2020-08-11,1.4370637875468355
2020-08-12,1.5320883278184416
2020-08-13,1.5669856306194556
2020-08-14,1.5826377896552963
2020-08-17,1.612192472960908
2020-08-18,1.6112484088673704
2020-08-19,1.6050180097088806
2020-08-20,1.6026263045946885
2020-08-21,1.617353171913257
2020-08-24,1.6177269720540568
2020-08-25,1.6114561400216514
2020-08-26,1.6227457238157745
2020-08-27,1.6130655853574423
2020-08-28,1.6255062121950263
2020-08-31,1.657906972770174
2020-09-01,1.7086909014096057
2020-09-02,1.6855731463298618
2020-09-03,1.6428644757677926
2020-09-04,1.6335765789925536
2020-09-08,1.634764901087163
2020-09-09,1.6503149922424647
2020-09-10,1.6458502972693225
2020-09-11,1.6378715129398138
2020-09-14,1.6461959662256516
2020-09-15,1.6642365607451919
2020-09-16,1.6614386107383488
2020-09-17,1.6428712289924956
2020-09-18,1.6490635366968314
2020-09-21,1.6744585388127735
2020-09-22,1.6937218352174708
2020-09-23,1.6605893329712025
2020-09-24,1.6481263983870371
2020-09-25,1.6649427209058891
2020-09-28,1.674958028498847
2020-09-29,1.6728098743788626
2020-09-30,1.682498324507586
2020-10-01,1.7039581825108636
2020-10-02,1.6848061894249016
2020-10-05,1.7071612399519978
2020-10-06,1.7056053712277195
2020-10-07,1.7205094561128678
2020-10-08,1.71577251067711
2020-10-09,1.7274799161519276
2020-10-12,1.73701457534316
2020-10-13,1.758598544846861
2020-10-14,1.734002644029062
2020-10-15,1.7183261948825923
2020-10-16,1.7197352159765211
2020-10-19,1.69704724498334
2020-10-20,1.6986769710117136
2020-10-21,1.6943778647218388
2020-10-22,1.6943778647218388
2020-10-23,1.6943778647218388
2020-10-26,1.6829256691801175
2020-10-27,1.6822972700592898
2020-10-28,1.6650284679944616
2020-10-29,1.6900747622574133
2020-10-30,1.6466395456557053
2020-11-02,1.6538932046542199
2020-11-03,1.6718000873676964
2020-11-04,1.6785750172434915
2020-11-05,1.7283415781959608
2020-11-06,1.7361221606517963
2020-11-09,1.737621986903132
2020-11-10,1.7323719402048483
2020-11-11,1.7596194189033536
2020-11-12,1.7407496842743413
2020-11-13,1.747605409202785
2020-11-16,1.7776080112558303
2020-11-17,1.7741828933718602
2020-11-18,1.7608318069018771
2020-11-19,1.7636426192549193
2020-11-20,1.75255307271118
2020-11-23,1.750979159465822
2020-11-24,1.759286172897988
2020-11-25,1.7562065672084803
2020-11-27,1.759234351755993
2020-11-30,1.745896458915601
2020-12-01,1.7474162617576092
2020-12-02,1.7497370506535754
2020-12-03,1.7510567357597941
2020-12-04,1.7580439308694384
2020-12-07,1.7493284718355495
2020-12-08,1.756173068062127
2020-12-09,1.7330635632629456
2020-12-10,1.7291385554796217
2020-12-11,1.7241344853723932
2020-12-14,1.7352452087862793
2020-12-15,1.7612974763023086
2020-12-16,1.7589647065143117
2020-12-17,1.7547719157293664
2020-12-18,1.7501317141286474
2020-12-21,1.745698503406007
2020-12-22,1.730367396849263
2020-12-23,1.7215051687249585
2020-12-24,1.732616855295992
2020-12-28,1.7337053777125688
2020-12-29,1.723787221464705
2020-12-30,1.741514870243165
2020-12-31,1.7867870308100517
2021-01-04,1.7649978385457648
2021-01-05,1.8034526011460037
2021-01-06,1.8016559982059732
2021-01-07,1.8256154522803545
2021-01-08,1.805369439940818
2021-01-11,1.7599393402620311
2021-01-12,1.7994724319876276
2021-01-13,1.804609182852689
2021-01-14,1.7948834586482236
2021-01-15,1.7754114768616687
2021-01-19,1.8294529488296138
2021-01-20,1.823815929216107
2021-01-21,1.8192782713242037
2021-01-22,1.80703765105183
2021-01-25,1.8575649177668705
2021-01-26,1.8379078026938673
2021-01-27,1.8146862454494097
2021-01-28,1.784992426560303
2021-01-29,1.7291996400631662
2021-02-01,1.7340518202880113
2021-02-02,1.751130844306392
2021-02-03,1.7283359129397824
2021-02-04,1.7716418877419438
2021-02-05,1.7655717141552811
2021-02-08,1.7785746854731679
2021-02-09,1.7863736796317236
2021-02-10,1.8190311322065846
2021-02-11,1.871691902841334
2021-02-12,1.911071308339885
2021-02-16,1.9204830411122193
2021-02-17,1.8804958403329564
2021-02-18,1.875195375439386
2021-02-19,1.8938229655612777
2021-02-22,1.821412005077066
2021-02-23,1.815064789020731
2021-02-24,1.815064789020731
2021-02-25,1.815064789020731
2021-02-26,1.815064789020731
2021-03-01,1.8201274165494727
2021-03-02,1.7847257285513702
2021-03-03,1.7675085641871162
2021-03-04,1.7424621974599015
2021-03-05,1.7424621974599015
2021-03-08,1.6976534191218353
2021-03-09,1.7515364137467693
2021-03-10,1.726456808917347
2021-03-11,1.7630550741868414
2021-03-12,1.7442816089305113
2021-03-15,1.7518717857687047
2021-03-16,1.7785410004997624
2021-03-17,1.8003256025943872
2021-03-18,1.7543254465713671
2021-03-19,1.7599590443211313
2021-03-22,1.7810085995332874
2021-03-23,1.7406964974773222
2021-03-24,1.7589244556474875
2021-03-25,1.7535950433400997
2021-03-26,1.788042678962742
2021-03-29,1.7835475920220156
2021-03-30,1.7774419929246676
2021-03-31,1.8070581470140996
2021-04-01,1.8452994988751228
2021-04-05,1.8789059331610434
2021-04-06,1.8517107123842202
2021-04-07,1.8597697834087539
2021-04-08,1.8717157101529205
2021-04-09,1.8868580455894917
2021-04-12,1.8398552360698832
2021-04-13,1.8372107199810952
2021-04-14,1.8203690700210133
2021-04-15,1.8203690700210133
2021-04-16,1.8203690700210133
2021-04-19,1.8238141423933247
2021-04-20,1.8259905377799162
2021-04-21,1.796058852147334
2021-04-22,1.7785052756683397
2021-04-23,1.7973206232841301
2021-04-26,1.8013570959812568
2021-04-27,1.7889455428025318
2021-04-28,1.8253595041598256
2021-04-29,1.8395637984904551
2021-04-30,1.8335163822510876
2021-05-03,1.8301629686566931
2021-05-04,1.7951081380135514
2021-05-05,1.7853671614456075
2021-05-06,1.799253751255847
2021-05-07,1.820962850973376
2021-05-10,1.7757209441608732
2021-05-11,1.7597223553462773
2021-05-12,1.7435068632969712
2021-05-13,1.7435068632969712
2021-05-14,1.7435068632969712
2021-05-17,1.7442724944646693
2021-05-18,1.732472750326278
2021-05-19,1.7294126097383138
2021-05-20,1.7363911493097524
2021-05-21,1.733082696624364
2021-05-24,1.7435588226216843
2021-05-25,1.7419465022221385
2021-05-26,1.7464605172062835
2021-05-27,1.7504791512100462
2021-05-28,1.7422703981388974
2021-06-01,1.7518889670112028
2021-06-02,1.759559584110355
2021-06-03,1.7641895517223163
2021-06-04,1.789834440722955
2021-06-07,1.8099596607014967
2021-06-08,1.81324378203312
2021-06-09,1.8074928854445806
2021-06-10,1.7863258562911821
2021-06-11,1.7912088378000468
2021-06-14,1.7958112258522414
2021-06-15,1.7850830329491378
2021-06-16,1.7675109464365972
2021-06-17,1.7750594297175206
2021-06-18,1.7655369658529891
2021-06-21,1.7688095038336336
2021-06-22,1.8002068984078288
2021-06-23,1.8105490781340112
2021-06-24,1.8212563775981674
2021-06-25,1.8103748168814429
2021-06-28,1.8759458379473468
2021-06-29,1.872734326215538
2021-06-30,1.8657610303175605
2021-07-01,1.8850901811421221
2021-07-02,1.8987043464993976
2021-07-06,1.9061743630396601
2021-07-07,1.8873270027645912
2021-07-08,1.858115460577491
2021-07-09,1.87181741961041
2021-07-12,1.8977858955404572
2021-07-13,1.8837144866631936
2021-07-14,1.8579316285359888
2021-07-15,1.8428290927252478
2021-07-16,1.8428290927252478
2021-07-19,1.8422386326632374
2021-07-20,1.8563692013345936
2021-07-21,1.864514751174173
2021-07-22,1.8795790340930398
2021-07-23,1.8878289386321332
2021-07-26,1.8847662692813016
2021-07-27,1.8769292473281822
2021-07-28,1.8791227172665845
2021-07-29,1.8819447042347208
2021-07-30,1.8860102963152694
2021-08-02,1.8815370505874722
2021-08-03,1.8859365688504934
2021-08-04,1.8947303147397876
2021-08-05,1.9014231300836768
2021-08-06,1.8974524842522316
2021-08-09,1.8966694731319014
2021-08-10,1.886242094072071
2021-08-11,1.8914606348021943
2021-08-12,1.9021512772714142
2021-08-13,1.9079418361241096
2021-08-16,1.909690891707418
2021-08-17,1.9016769474759165
2021-08-18,1.8927188547832792
2021-08-19,1.9107029579173065
2021-08-20,1.9198197174468214
2021-08-23,1.9337365655550183
2021-08-24,1.9354401292554544
2021-08-25,1.9383335625896185
2021-08-26,1.9349628339256288
2021-08-27,1.9396482554671448
2021-08-30,1.952656121221385
2021-08-31,1.9592772702457435
2021-09-01,1.946426299110796
2021-09-02,1.9549155714005435
2021-09-03,1.963346522046361
2021-09-07,1.954363371835536
2021-09-08,1.971574945131957
2021-09-09,1.9799140868564193
2021-09-10,1.950988101075907
2021-09-13,1.9313189929540995
2021-09-14,1.9519972819664693
2021-09-15,1.9590808888989852
2021-09-16,1.995071127811396
2021-09-17,1.9878444971110345
2021-09-20,1.9788353812206059
2021-09-21,2.0006049868752886
2021-09-22,2.0461876374320473
2021-09-23,2.0410314478257536
2021-09-24,2.0337620351152945
2021-09-27,1.9708564073947161
2021-09-28,1.9298230368308567
2021-09-29,1.9247754621095827
2021-09-30,1.937712332260634
2021-10-01,1.9406931734460102
2021-10-04,1.8975269449855705
2021-10-05,1.9135998050811387
2021-10-06,1.9183646200906912
2021-10-07,1.9143044842590595
2021-10-08,1.9083316843737763
2021-10-11,1.9212823244225214
2021-10-12,1.9387147934453948
2021-10-13,1.972551117819485
2021-10-14,1.9626012013523493
2021-10-15,1.9710697366910885
2021-10-18,1.9880149684545452
2021-10-19,1.987167712795061
2021-10-20,1.9896699134021092
2021-10-21,1.9928242634006583
2021-10-22,1.9940137329939591
2021-10-25,1.985144259786796
2021-10-26,1.98735385339112
2021-10-27,1.9646035142323477
2021-10-28,1.977723562232453
2021-10-29,1.9980243949935719
2021-11-01,2.0473371979185235
2021-11-02,2.0143166634630334
2021-11-03,2.0438516152682005
2021-11-04,2.0718238197611174
2021-11-05,2.1197604892888857
2021-11-08,2.0747937860109786
2021-11-09,2.05245311916733
2021-11-10,2.05245311916733
2021-11-11,2.05245311916733
2021-11-12,2.05245311916733
2021-11-15,2.01960195562273
2021-11-16,2.0732092795113015
2021-11-17,2.030309903939954
2021-11-18,2.028121596874847
2021-11-19,2.0422366223330113
2021-11-22,1.8932386774371923
2021-11-23,1.8932386774371923
2021-11-24,1.8932386774371923
2021-11-26,1.8932386774371923
2021-11-29,1.949283802097098
2021-11-30,1.9075340728363075
2021-12-01,1.8156957577686461
2021-12-02,1.8453442350436673
2021-12-03,1.7686882079918598
2021-12-06,1.7518089758671915
2021-12-07,1.7835687906557134
2021-12-08,1.7824195464125037
2021-12-09,1.7758377913789851
2021-12-10,1.7705618519374071
2021-12-13,1.7406161912368907
2021-12-14,1.724388528771789
2021-12-15,1.775359206749976
2021-12-16,1.7231572151073187
2021-12-17,1.7431216837556183
2021-12-20,1.764732743170452
2021-12-21,1.783345989627099
2021-12-22,1.8063622142971307
2021-12-23,1.8166789146670146
2021-12-27,1.846390230529512
2021-12-28,1.8242100574552242
2021-12-29,1.8321662644923582
2021-12-30,1.8158175275822057
2021-12-31,1.8165430536125797
2022-01-03,1.8237504824915542
2022-01-04,1.8288991161426302
2022-01-05,1.7673840333493493
2022-01-06,1.7590986831226891
2022-01-07,1.7491653608149065
2022-01-10,1.7495086751176532
2022-01-11,1.755243089349246
2022-01-12,1.7594451701578642
2022-01-13,1.762674353268118
2022-01-14,1.785420352232835
2022-01-18,1.758724798609562
2022-01-19,1.7449590159843233
2022-01-20,1.7307977519881592
2022-01-21,1.7297580324928583
2022-01-24,1.723970907205071
2022-01-25,1.723970907205071
2022-01-26,1.723970907205071
2022-01-27,1.723970907205071
2022-01-28,1.723970907205071
2022-01-31,1.723970907205071
2022-02-01,1.723970907205071
2022-02-02,1.723970907205071
2022-02-03,1.723970907205071
2022-02-04,1.723970907205071
2022-02-07,1.723970907205071
2022-02-08,1.723970907205071
2022-02-09,1.723970907205071
2022-02-10,1.723970907205071
2022-02-11,1.723970907205071
2022-02-14,1.723970907205071
2022-02-15,1.723970907205071
2022-02-16,1.723970907205071
2022-02-17,1.723970907205071
2022-02-18,1.723970907205071
2022-02-22,1.723970907205071
2022-02-23,1.723970907205071
2022-02-24,1.723970907205071
2022-02-25,1.723970907205071
2022-02-28,1.723970907205071
2022-03-01,1.723970907205071
2022-03-02,1.723970907205071
2022-03-03,1.723970907205071
2022-03-04,1.723970907205071
2022-03-07,1.723970907205071
2022-03-08,1.723970907205071
2022-03-09,1.723970907205071
2022-03-10,1.723970907205071
2022-03-11,1.723970907205071
2022-03-14,1.723970907205071
2022-03-15,1.723970907205071
2022-03-16,1.723970907205071
2022-03-17,1.723970907205071
2022-03-18,1.723970907205071
2022-03-21,1.723970907205071
2022-03-22,1.723970907205071
2022-03-23,1.723970907205071
2022-03-24,1.723970907205071
2022-03-25,1.723970907205071
2022-03-28,1.723970907205071
2022-03-29,1.723970907205071
2022-03-30,1.723970907205071
2022-03-31,1.723970907205071
2022-04-01,1.723970907205071
2022-04-04,1.723970907205071
2022-04-05,1.723970907205071
2022-04-06,1.723970907205071
2022-04-07,1.723970907205071
2022-04-08,1.723970907205071
2022-04-11,1.723970907205071
2022-04-12,1.723970907205071
2022-04-13,1.723970907205071
2022-04-14,1.723970907205071
2022-04-18,1.723970907205071
2022-04-19,1.723970907205071
2022-04-20,1.723970907205071
2022-04-21,1.723970907205071
2022-04-22,1.723970907205071
2022-04-25,1.723970907205071
2022-04-26,1.723970907205071
2022-04-27,1.723970907205071
2022-04-28,1.723970907205071
2022-04-29,1.723970907205071
2022-05-02,1.723970907205071
2022-05-03,1.723970907205071
2022-05-04,1.723970907205071
2022-05-05,1.723970907205071
2022-05-06,1.723970907205071
2022-05-09,1.723970907205071
2022-05-10,1.723970907205071
2022-05-11,1.723970907205071
2022-05-12,1.723970907205071
2022-05-13,1.723970907205071
2022-05-16,1.723970907205071
2022-05-17,1.723970907205071
2022-05-18,1.723970907205071
2022-05-19,1.723970907205071
2022-05-20,1.723970907205071
2022-05-23,1.723970907205071
2022-05-24,1.723970907205071
2022-05-25,1.723970907205071
2022-05-26,1.723970907205071
2022-05-27,1.723970907205071
2022-05-31,1.723970907205071
2022-06-01,1.723970907205071
2022-06-02,1.723970907205071
2022-06-03,1.723970907205071
2022-06-06,1.723970907205071
2022-06-07,1.723970907205071
2022-06-08,1.723970907205071
2022-06-09,1.723970907205071
2022-06-10,1.723970907205071
2022-06-13,1.723970907205071
2022-06-14,1.723970907205071
2022-06-15,1.723970907205071
2022-06-16,1.723970907205071
2022-06-17,1.723970907205071
2022-06-21,1.723970907205071
2022-06-22,1.723970907205071
2022-06-23,1.723970907205071
2022-06-24,1.723970907205071
2022-06-27,1.723970907205071
2022-06-28,1.723970907205071
2022-06-29,1.723970907205071
2022-06-30,1.723970907205071
2022-07-01,1.723970907205071
2022-07-05,1.723970907205071
2022-07-06,1.723970907205071
2022-07-07,1.723970907205071
2022-07-08,1.723970907205071
2022-07-11,1.723970907205071
2022-07-12,1.723970907205071
2022-07-13,1.723970907205071
2022-07-14,1.723970907205071
2022-07-15,1.723970907205071
2022-07-18,1.723970907205071
2022-07-19,1.723970907205071
2022-07-20,1.723970907205071
2022-07-21,1.723970907205071
2022-07-22,1.723970907205071
2022-07-25,1.723970907205071
2022-07-26,1.723970907205071
2022-07-27,1.723970907205071
2022-07-28,1.723970907205071
2022-07-29,1.723970907205071
2022-08-01,1.723970907205071
2022-08-02,1.723970907205071
2022-08-03,1.723970907205071
2022-08-04,1.723970907205071
2022-08-05,1.723970907205071
2022-08-08,1.723970907205071
2022-08-09,1.723970907205071
2022-08-10,1.723970907205071
2022-08-11,1.723970907205071
2022-08-12,1.723970907205071
2022-08-15,1.723970907205071
2022-08-16,1.723970907205071
2022-08-17,1.723970907205071
2022-08-18,1.723970907205071
2022-08-19,1.723970907205071
2022-08-22,1.723970907205071
2022-08-23,1.723970907205071
2022-08-24,1.723970907205071
2022-08-25,1.723970907205071
2022-08-26,1.723970907205071
2022-08-29,1.723970907205071
2022-08-30,1.723970907205071
2022-08-31,1.723970907205071
2022-09-01,1.723970907205071
2022-09-02,1.723970907205071
2022-09-06,1.723970907205071
2022-09-07,1.723970907205071
2022-09-08,1.723970907205071
2022-09-09,1.723970907205071
2022-09-12,1.723970907205071
2022-09-13,1.723970907205071
2022-09-14,1.723970907205071
2022-09-15,1.723970907205071
2022-09-16,1.723970907205071
2022-09-19,1.723970907205071
2022-09-20,1.723970907205071
2022-09-21,1.723970907205071
2022-09-22,1.723970907205071
2022-09-23,1.723970907205071
2022-09-26,1.723970907205071
2022-09-27,1.723970907205071
2022-09-28,1.723970907205071
2022-09-29,1.723970907205071
2022-09-30,1.723970907205071
2022-10-03,1.723970907205071
2022-10-04,1.723970907205071
2022-10-05,1.723970907205071
2022-10-06,1.723970907205071
2022-10-07,1.723970907205071
2022-10-10,1.723970907205071
2022-10-11,1.723970907205071
2022-10-12,1.723970907205071
2022-10-13,1.723970907205071
2022-10-14,1.723970907205071
2022-10-17,1.723970907205071
2022-10-18,1.723970907205071
2022-10-19,1.723970907205071
2022-10-20,1.723970907205071
2022-10-21,1.723970907205071
2022-10-24,1.723970907205071
2022-10-25,1.723970907205071
2022-10-26,1.723970907205071
2022-10-27,1.723970907205071
2022-10-28,1.723970907205071
2022-10-31,1.723970907205071
2022-11-01,1.723970907205071
2022-11-02,1.723970907205071
2022-11-03,1.723970907205071
2022-11-04,1.723970907205071
2022-11-07,1.723970907205071
2022-11-08,1.723970907205071
2022-11-09,1.723970907205071
2022-11-10,1.723970907205071
2022-11-11,1.723970907205071
2022-11-14,1.723970907205071
2022-11-15,1.723970907205071
2022-11-16,1.723970907205071
2022-11-17,1.723970907205071
2022-11-18,1.723970907205071
2022-11-21,1.723970907205071
2022-11-22,1.723970907205071
2022-11-23,1.723970907205071
2022-11-25,1.723970907205071
2022-11-28,1.723970907205071
2022-11-29,1.723970907205071
2022-11-30,1.723970907205071
2022-12-01,1.723970907205071
2022-12-02,1.723970907205071
2022-12-05,1.723970907205071
2022-12-06,1.723970907205071
2022-12-07,1.723970907205071
2022-12-08,1.723970907205071
2022-12-09,1.723970907205071
2022-12-12,1.723970907205071
2022-12-13,1.723970907205071
2022-12-14,1.723970907205071
2022-12-15,1.723970907205071
2022-12-16,1.723970907205071
2022-12-19,1.723970907205071
2022-12-20,1.723970907205071
2022-12-21,1.723970907205071
2022-12-22,1.723970907205071
2022-12-23,1.723970907205071
2022-12-27,1.723970907205071
2022-12-28,1.723970907205071
2022-12-29,1.723970907205071
2022-12-30,1.723970907205071
2023-01-03,1.723970907205071
2023-01-04,1.723970907205071
2023-01-05,1.723970907205071
2023-01-06,1.723970907205071
2023-01-09,1.723970907205071
2023-01-10,1.723970907205071
2023-01-11,1.723970907205071
2023-01-12,1.723970907205071
2023-01-13,1.723970907205071
2023-01-17,1.723970907205071
2023-01-18,1.723970907205071
2023-01-19,1.723970907205071
2023-01-20,1.723970907205071
2023-01-23,1.723970907205071
2023-01-24,1.723970907205071
2023-01-25,1.723970907205071
2023-01-26,1.723970907205071
2023-01-27,1.723970907205071
2023-01-30,1.723970907205071
2023-01-31,1.723970907205071
2023-02-01,1.723970907205071
2023-02-02,1.723970907205071
2023-02-03,1.723970907205071
2023-02-06,1.7335235875430874
2023-02-07,1.8041269033782124
2023-02-08,1.7676051883941475
2023-02-09,1.7476113479464013
2023-02-10,1.6857766775007441
2023-02-13,1.7318447124628626
2023-02-14,1.7810870464009372
2023-02-15,1.761789853075984
2023-02-16,1.7084085340887674
2023-02-17,1.6791241013187177
2023-02-21,1.6496931094719076
2023-02-22,1.6474033164255766
2023-02-23,1.6495976662759677
2023-02-24,1.6456621200120196
2023-02-27,1.6406909086642094
2023-02-28,1.6486065171761286
2023-03-01,1.635958135609621
2023-03-02,1.6493357205962824
2023-03-03,1.6849381952375873
2023-03-06,1.6782506468400618
2023-03-07,1.6727559109735335
2023-03-08,1.6894106666926638
2023-03-09,1.6686080568914123
2023-03-10,1.6552027528357205
2023-03-13,1.658535566055638
2023-03-14,1.7089409079034312
2023-03-15,1.7207122999766606
2023-03-16,1.760712816583395
2023-03-17,1.7416884676506346
2023-03-20,1.749984709682482
2023-03-21,1.7655693173036617
2023-03-22,1.7646506453729964
2023-03-23,1.7879083031734748
2023-03-24,1.784856900482556
2023-03-27,1.7729752738814506
2023-03-28,1.7657152387274073
2023-03-29,1.7868542145571613
2023-03-30,1.7997446366941716
2023-03-31,1.8163880270943014
2023-04-03,1.8223585884426727
2023-04-04,1.8173742802076838
2023-04-05,1.7996809150777224
2023-04-06,1.8134183805939292
2023-04-10,1.819640892684394
2023-04-11,1.8103513543154892
2023-04-12,1.7989668260789369
2023-04-13,1.813555317848225
2023-04-14,1.8214138179517723
2023-04-17,1.8193916723767098
2023-04-18,1.8286634896369702
2023-04-19,1.8252427163298468
2023-04-20,1.8108349094231384
2023-04-21,1.8110962243267308
2023-04-24,1.8078708663641432
2023-04-25,1.7826635643726008
2023-04-26,1.7865796115284256
2023-04-27,1.8483047024062698
2023-04-28,1.852030282622422
2023-05-01,1.8551916839098932
2023-05-02,1.8408911946058353
2023-05-03,2.022728700410099
2023-05-04,2.0152987970127643
2023-05-05,2.013732352108125
2023-05-08,2.0601443787496994
2023-05-09,2.0523583592199275
2023-05-10,2.0399927150179726
2023-05-11,2.0413223362631867
2023-05-12,2.011505830912096
2023-05-15,2.0262760137756723
2023-05-16,2.0023613752380607
2023-05-17,2.0205759417429183
2023-05-18,2.0312740459704197
2023-05-19,2.018103545627196
2023-05-22,2.05413521382511
2023-05-23,1.9899101531676948
2023-05-24,2.0055845528230343
2023-05-25,1.9923853297203677
2023-05-26,2.019037307294334
2023-05-30,2.0288745745310273
2023-05-31,1.975199875359381
2023-06-01,2.0068428585988
2023-06-02,1.9662037551888347
2023-06-05,2.0331613948692295
2023-06-06,2.0905351824005516
2023-06-07,2.0958820334938726
2023-06-08,2.1610925936342937
2023-06-09,2.1938098322135824
2023-06-12,2.1955897243160134
2023-06-13,2.1083657587357854
2023-06-14,2.082511308602345
2023-06-15,2.11189997903584
2023-06-16,2.096947368130232
2023-06-20,2.083509247937038
2023-06-21,1.9942161280062634
2023-06-22,2.0360834219486037
2023-06-23,2.0405148453644104
2023-06-26,1.9913710847072188
2023-06-27,2.0290147608812577
2023-06-28,2.0462309042812272
2023-06-29,2.0562053411164474
2023-06-30,2.095700089913077
2023-07-03,2.098200213398349
2023-07-05,2.0920196761883343
2023-07-06,2.060771850758975
2023-07-07,2.037293934458093
2023-07-10,2.006782194033907
2023-07-11,2.009479883034535
2023-07-12,2.027429168783072
2023-07-13,2.052308934482929
2023-07-14,2.046217917635802
2023-07-17,2.068251498090924
2023-07-18,2.1368333678931597
2023-07-19,2.0654980126339275
2023-07-20,2.0468294224947865
2023-07-21,2.036198401711121
2023-07-24,1.9718319903774861
2023-07-25,2.002840455343126
2023-07-26,2.0403506267486535
2023-07-27,2.0245686057566368
2023-07-28,2.1704923938610423
2023-07-31,2.2120569228346296
2023-08-01,2.2130923016515416
2023-08-02,2.203774089777649
2023-08-03,2.1841023530390573
2023-08-04,2.2106764835715187
2023-08-07,2.1926875222545403
2023-08-08,2.1582345431526786
2023-08-09,2.102215696538812
2023-08-10,2.102215696538812
2023-08-11,2.102215696538812
2023-08-14,2.105383420801295
2023-08-15,2.0977819292061257
2023-08-16,2.0967809173426106
2023-08-17,2.0818146260147214
2023-08-18,2.074605237648802
2023-08-21,2.0700056431652434
2023-08-22,2.0667254407344333
2023-08-23,2.069611182250722
2023-08-24,2.067285978026461
2023-08-25,2.0740332061622304
2023-08-28,2.1024809323983433
2023-08-29,2.1173258440752685
2023-08-30,2.1646233958296217
2023-08-31,2.170244645258999
2023-09-01,2.1718255232157775
2023-09-05,2.1487818686197038
2023-09-06,2.1369262209101487
2023-09-07,2.1441412382962075
2023-09-08,2.1331481506783336
2023-09-11,2.1380400909645045
2023-09-12,2.119331893318158
2023-09-13,2.0927415452298175
2023-09-14,2.093743131183134
2023-09-15,2.0882782344158684
2023-09-18,2.076957348177851
2023-09-19,2.0793062399398616
2023-09-20,2.071778234856336
2023-09-21,2.058512786812539
2023-09-22,2.058512786812539
2023-09-25,2.0509109522073836
2023-09-26,2.0568844267648903
2023-09-27,2.064906429476701
2023-09-28,2.0754705777552385
2023-09-29,2.0782787367778273
2023-10-02,2.0804318688856527
2023-10-03,2.04595190316311
2023-10-04,2.0544732151184406
2023-10-05,2.0537808242026196
2023-10-06,2.0583781938924375
2023-10-09,2.0973321016676074
2023-10-10,2.1086507314787553
2023-10-11,2.1579736083357197
2023-10-12,2.1568819769052494
2023-10-13,2.1443089357365794
2023-10-16,2.1610650099947466
2023-10-17,2.1532323538454934
2023-10-18,2.155419258484077
2023-10-19,2.130555866967863
2023-10-20,2.080191285221871
2023-10-23,2.0782426473057964
2023-10-24,2.0951931551629492
2023-10-25,2.065565388805921
2023-10-26,2.049788254967584
2023-10-27,2.051187190966735
2023-10-30,2.0614499832006157
2023-10-31,2.069082019578922
2023-11-01,2.078405113232789
2023-11-02,2.093639571147298
2023-11-03,2.106994968410032
2023-11-06,2.1033762244165124
2023-11-07,2.1223358968565096
2023-11-08,2.122386057336578
2023-11-09,2.1120938329378243
2023-11-10,2.135740983026781
2023-11-13,2.1542419283962775
2023-11-14,2.174884718036144
2023-11-15,2.1707800725641624
2023-11-16,2.1487263852581036
2023-11-17,2.1570690396958683
2023-11-20,2.195045617483045
2023-11-21,2.118210095497211
2023-11-22,2.1143215768260744
2023-11-24,2.081240088941062
2023-11-27,2.1081450463334006
2023-11-28,2.110838639317368
2023-11-29,2.146121926939488
2023-11-30,2.138742259939945
2023-12-01,2.1537909428582918
2023-12-04,2.1415147452883927
2023-12-05,2.130237955617568
2023-12-06,2.095947203509702
2023-12-07,2.1022399400068696
2023-12-08,2.091569702138818
2023-12-11,2.1185646235223943
2023-12-12,2.1247657626571796
2023-12-13,2.163311344877782
2023-12-14,2.1972717387942753
2023-12-15,2.2470886357984603
2023-12-18,2.2519868743149702
2023-12-19,2.237780489313525
2023-12-20,2.202495760789742
2023-12-21,2.234046869608949
2023-12-22,2.226822318881636
2023-12-26,2.2462770751147043
2023-12-27,2.244261085860432
2023-12-28,2.2361914340088274
2023-12-29,2.2153573307734153
2024-01-02,2.1425683622154854
2024-01-03,2.12412765559868
2024-01-04,2.12412765559868
2024-01-05,2.12412765559868
2024-01-08,2.16816586466033
2024-01-09,2.191471354259179
2024-01-10,2.186023311731714
2024-01-11,2.1820887041521155
2024-01-12,2.1710412525106246
2024-01-16,2.2894332810124887
2024-01-17,2.2621638589828215
2024-01-18,2.2792878472353983
2024-01-19,2.307532088116042
2024-01-22,2.244586457922613
2024-01-23,2.239302502874777
2024-01-24,2.2507446530082227
2024-01-25,2.224819305985733
2024-01-26,2.212845024873881
2024-01-29,2.2463945135027465
2024-01-30,2.2131764588098024
2024-01-31,2.1324283994437963
2024-02-01,2.1585437683853246
2024-02-02,2.1745095538734587
2024-02-05,2.170404013144054
2024-02-06,2.1689594753321706
2024-02-07,2.2285269386277657
2024-02-08,2.2485221632708914
2024-02-09,2.2724707254945944
2024-02-12,2.2358295210480286
2024-02-13,2.234142807376969
2024-02-14,2.2590515055055755
2024-02-15,2.241592763471871
2024-02-16,2.2409600580510434
2024-02-20,2.1748387062707843
2024-02-21,2.1748387062707843
2024-02-22,2.1748387062707843
2024-02-23,2.1748387062707843
2024-02-26,2.1929517698345107
2024-02-27,2.2357384057758907
2024-02-28,2.179649042230456
2024-02-29,2.2255516675217724
2024-03-01,2.3006940428849685
2024-03-04,2.2841151759549954
2024-03-05,2.2490747564929396
2024-03-06,2.2934969861363204
2024-03-07,2.340429074848885
2024-03-08,2.330719851581669
2024-03-11,2.2164021062630224
2024-03-12,2.2367136749020595
2024-03-13,2.2739514789973736
2024-03-14,2.2758321479115424
2024-03-15,2.2747037752602095
2024-03-18,2.3691148039584577
2024-03-19,2.3595232059646056
2024-03-20,2.413687245516197
2024-03-21,2.439829074320749
2024-03-22,2.427040324824227
2024-03-25,2.4650874208481026
2024-03-26,2.4084330266441687
2024-03-27,2.3631745838032145
2024-03-28,2.3644016108945567
2024-04-01,2.3962526033697227
2024-04-02,2.353831983512129
2024-04-03,2.3548062967408017
2024-04-04,2.2580459197377194
2024-04-05,2.246379313595498
2024-04-08,2.230734970043968
2024-04-09,2.219518012274921
2024-04-10,2.21819837347465
2024-04-11,2.2321278817145123
2024-04-12,2.2125532861217345
2024-04-15,2.172131321270065
2024-04-16,2.170802219573324
2024-04-17,2.1465620811317656
2024-04-18,2.1350195248072303
2024-04-19,2.1350195248072303
2024-04-22,2.1484710196963004
2024-04-23,2.162059826767684
2024-04-24,2.1691063264614394
2024-04-25,2.1350195248072303
2024-04-26,2.1350195248072303
2024-04-29,2.1515271380941945
2024-04-30,2.0787276952316116
2024-05-01,2.0261537144215787
2024-05-02,2.066273555547797
2024-05-03,2.1044828586408566
2024-05-06,2.161444426919892
2024-05-07,2.147206451683456
2024-05-08,2.1002057044629083
2024-05-09,2.2032983978469596
2024-05-10,2.2159667172973663
2024-05-13,2.2131210020482595
2024-05-14,2.143614285226084
2024-05-15,2.1802866408246038
2024-05-16,2.1772511966333385
2024-05-17,2.1561930804492158
2024-05-20,2.197929655402004
2024-05-21,2.1919129976578873
2024-05-22,2.176615113243579
2024-05-23,2.275648137963551
2024-05-24,2.333041614393318
2024-05-28,2.4434329309626506
2024-05-29,2.4444783370505228
2024-05-30,2.3580472119823526
2024-05-31,2.3486106336166213
2024-06-03,2.357913972690645
2024-06-04,2.357777589794047
2024-06-05,2.448524072037541
2024-06-06,2.427399120249546
2024-06-07,2.4075978508714067
2024-06-10,2.395286207779142
2024-06-11,2.3301027425352676
2024-06-12,2.374444680157214
2024-06-13,2.4200269489400386
2024-06-14,2.44349012333071
2024-06-17,2.4515153489099886
2024-06-18,2.4832459308350985
2024-06-20,2.410741294577835
2024-06-21,2.3732596906672274
2024-06-24,2.2878479367347633
2024-06-25,2.356431771676937
2024-06-26,2.3675177151852775
2024-06-27,2.340453851067119
2024-06-28,2.349757329731627
2024-07-01,2.382562976138029
2024-07-02,2.3789220932209663
2024-07-03,2.484781681969931
2024-07-05,2.4424676981316185
2024-07-08,2.4960359668217835
2024-07-09,2.517586204432668
2024-07-10,2.559798651280655
2024-07-11,2.459492352828585
2024-07-12,2.4733938228532475
2024-07-15,2.475468066827415
2024-07-16,2.440698514820963
2024-07-17,2.377052684677355
2024-07-18,2.377052684677355
2024-07-19,2.377052684677355
2024-07-22,2.3851620603286525
2024-07-23,2.3798681936398296
2024-07-24,2.2819705772902608
2024-07-25,2.2819705772902608
2024-07-26,2.2819705772902608
2024-07-29,2.269353599968589
2024-07-30,2.255971460875723
2024-07-31,2.265352262049341
2024-08-01,2.253810666556252
2024-08-02,2.236177452227191
2024-08-05,2.2063089478252884
2024-08-06,2.2080291233096334
2024-08-07,2.190784817822471
2024-08-08,2.2023354980522702
2024-08-09,2.1883148291333225
2024-08-12,2.164936018918248
2024-08-13,2.183200831190714
2024-08-14,2.194232062982112
2024-08-15,2.198210523623591
2024-08-16,2.2137627820196433
2024-08-19,2.2304401563072442
2024-08-20,2.2228672881584313
2024-08-21,2.245754433454186
2024-08-22,2.2071471302673906
2024-08-23,2.2320106132939417
2024-08-26,2.1974748798474355
2024-08-27,2.191040792372732
2024-08-28,2.152583015256308
2024-08-29,2.175174380019718
2024-08-30,2.1957657142494864
2024-09-03,2.136386953463311
2024-09-04,2.102074979883323
2024-09-05,2.102074979883323
2024-09-06,2.102074979883323
2024-09-09,2.114633143147213
2024-09-10,2.130264293225384
2024-09-11,2.1679227593009456
2024-09-12,2.171339466956457
2024-09-13,2.1577936728830034
2024-09-16,2.1446994678101854
2024-09-17,2.1394108311597546
2024-09-18,2.1251395186395143
2024-09-19,2.136599371149761
2024-09-20,2.1216526187759372
2024-09-23,2.120282169441197
2024-09-24,2.115165668613076
2024-09-25,2.1188223434144215
2024-09-26,2.113652767593084
2024-09-27,2.113018985343433
2024-09-30,2.138958535338255
2024-10-01,2.1394414353500424
2024-10-02,2.139967129474139
2024-10-03,2.166785761937221
2024-10-04,2.2092049647310037
2024-10-07,2.2087850306478636
2024-10-08,2.238975835488756
2024-10-09,2.2361632120303625
2024-10-10,2.2365448416019182
2024-10-11,2.254443445867115
2024-10-14,2.2327713055064473
2024-10-15,2.1974314910708874
2024-10-16,2.168410562862126
2024-10-17,2.1530807151790485
2024-10-18,2.171476481822711
2024-10-21,2.223068527160465
2024-10-22,2.2284896388709208
2024-10-23,2.2205838150569157
2024-10-24,2.242494364151468
2024-10-25,2.2718589633896515
2024-10-28,2.254606458809375
2024-10-29,2.2595125065572557
2024-10-30,2.216302293668382
2024-10-31,2.1288174764776002
2024-11-01,2.136949144043284
2024-11-04,2.1166905134541576
2024-11-05,2.301625040656682
2024-11-06,2.312654831641871
2024-11-07,2.5399393374547174
2024-11-08,2.5399393374547174
2024-11-11,2.5365300141892764
2024-11-12,2.46484600835442
2024-11-13,2.4344550419795397
2024-11-14,2.4003105034490138
2024-11-15,2.3613285967298916
2024-11-18,2.3928139397733945
2024-11-19,2.4938121174264647
2024-11-20,2.5169398629993776
2024-11-21,2.530950003575994
2024-11-22,2.585182401814749
2024-11-25,2.5268236603934713
2024-11-26,2.579627976990648
2024-11-27,2.5335135596245317
2024-11-29,2.601340027855343
2024-12-02,2.673286356144713
2024-12-03,2.669050764019308
2024-12-04,2.897645377495272
2024-12-05,2.897645377495272
2024-12-06,2.897645377495272
2024-12-09,2.7624429960384886
2024-12-10,2.6896065069251245
2024-12-11,2.6928489884645836
2024-12-12,2.6773484303616772
2024-12-13,2.665833747295651
2024-12-16,2.804846490411383
2024-12-17,2.830928627917272
2024-12-18,2.612338907956496
2024-12-19,2.635510406023045
2024-12-20,2.7264393982528468
2024-12-23,2.742752617068892
2024-12-24,2.758464154261895
2024-12-26,2.7745225785629968
2024-12-27,2.676707257386086
2024-12-30,2.6461637666151283
2024-12-31,2.549678325230445
2025-01-02,2.6230345733427143
2025-01-03,2.6592835493916636
2025-01-06,2.633607613826097
2025-01-07,2.431657184436418
2025-01-08,2.431657184436418
2025-01-10,2.431657184436418
2025-01-13,2.463400621962544
2025-01-14,2.462041506632592
2025-01-15,2.475502812801034
2025-01-16,2.487975247655963
2025-01-17,2.5491366895554193
2025-01-21,2.551748323847267
2025-01-22,2.561168179363273
2025-01-23,2.564040829348905
2025-01-24,2.5651821774744064
2025-01-27,2.4806251949430536
2025-01-28,2.4806251949430536
2025-01-29,2.4806251949430536
2025-01-30,2.4806251949430536
2025-01-31,2.4806251949430536
2025-02-03,2.529533346200264
2025-02-04,2.7110256426370034
2025-02-05,2.6708742991472922
2025-02-06,2.702320296214027
2025-02-07,2.69370676445041
2025-02-10,2.710868674971123
2025-02-11,2.676053552153435
2025-02-12,2.7118153158312497
2025-02-13,2.9318314848909472
2025-02-14,2.894888561212634
2025-02-18,3.0709990466012957
2025-02-19,3.178998423096285
2025-02-20,3.167316927408141
2025-02-21,3.115698969502186
2025-02-24,3.070172301065554
2025-02-25,3.01056824336046
2025-02-26,3.01056824336046
2025-02-27,3.01056824336046
2025-02-28,3.01056824336046
2025-03-03,3.0136881130036
2025-03-04,2.9837709077212216
2025-03-05,2.9861821109328908
2025-03-06,2.9901126268602605
2025-03-07,2.999087539988577
2025-03-10,2.9964016167473795
2025-03-11,2.9964016167473795
2025-03-12,2.9964016167473795
2025-03-13,2.9964016167473795
2025-03-14,2.9964016167473795
2025-03-17,2.9964016167473795
2025-03-18,2.9964016167473795
2025-03-19,2.9964016167473795
2025-03-20,2.9964016167473795
2025-03-21,2.9964016167473795
2025-03-24,2.9964016167473795
2025-03-25,2.9964016167473795
2025-03-26,2.9964016167473795
2025-03-27,2.9964016167473795
2025-03-28,2.9964016167473795
2025-03-31,2.9964016167473795
2025-04-01,2.9964016167473795
2025-04-02,2.9964016167473795
2025-04-03,2.9964016167473795
2025-04-04,2.9964016167473795
2025-04-07,2.9964016167473795
2025-04-08,2.9964016167473795
2025-04-09,2.9964016167473795
2025-04-10,2.9964016167473795
2025-04-11,2.9964016167473795
2025-04-14,2.9964016167473795
2025-04-15,2.9964016167473795
2025-04-16,2.9964016167473795
2025-04-17,2.9964016167473795
2025-04-21,2.9964016167473795
2025-04-22,2.9964016167473795
2025-04-23,2.9964016167473795
2025-04-24,2.9964016167473795
2025-04-25,2.9964016167473795
2025-04-28,2.9964016167473795
2025-04-29,2.9964016167473795
2025-04-30,2.9964016167473795
2025-05-01,2.9964016167473795
2025-05-02,2.9964016167473795
2025-05-05,2.9964016167473795
2025-05-06,2.9964016167473795
2025-05-07,2.9964016167473795
2025-05-08,2.9964016167473795
2025-05-09,2.9964016167473795
2025-05-12,2.9964016167473795
2025-05-13,2.9964016167473795
2025-05-14,2.9964016167473795
2025-05-15,2.9964016167473795
2025-05-16,2.9964016167473795
2025-05-19,3.0180315248005054
2025-05-20,3.009642225141393
2025-05-21,2.9627020031009246
2025-05-22,2.9855952522436398
2025-05-23,2.940714225084667
2025-05-27,2.969223952815115
2025-05-28,2.9710733914579093
2025-05-29,2.9507369686562113
2025-05-30,3.0747383582184944
2025-06-02,3.0954069254590153
2025-06-03,3.114114368024385
2025-06-04,3.0596844938040455
2025-06-05,2.942880803429305
2025-06-06,2.952148725289936
2025-06-09,2.9419174279861364
2025-06-10,2.950962437791326
2025-06-11,2.993332968639243
2025-06-12,2.9284579191280775
2025-06-13,2.9550065386343194
2025-06-16,2.990330404052154
2025-06-17,2.933903199183428
2025-06-18,2.9715043453351244
2025-06-20,2.9046754904437337
2025-06-23,2.947590700816435
2025-06-24,3.0377074029607134
2025-06-25,3.005904727238728
2025-06-26,3.0349708146216487
2025-06-27,2.8918714430408037
2025-06-30,2.9790854155313977
2025-07-01,2.9488087468213338
2025-07-02,3.0260380982000363
2025-07-03,3.0974854981665487
2025-07-07,3.069844334138439
2025-07-08,3.068865015985313
2025-07-09,3.0966867772377253
2025-07-10,3.046415631473576
2025-07-11,3.0191926322241054
2025-07-14,3.0232829562047785
2025-07-15,3.155379659974166
2025-07-16,3.240655505641687
2025-07-17,3.289759409363353
2025-07-18,3.234022839808918
2025-07-21,3.2224157875722605
2025-07-22,3.1654539748263355
2025-07-23,3.2294892573677423
2025-07-24,3.2712137600019036
2025-07-25,3.3304122328735177
2025-07-28,3.4209323877553954
2025-07-29,3.474090976001186
2025-07-30,3.4993812474154966
2025-07-31,3.485597928591816
2025-08-01,3.435135285042645
2025-08-04,3.4585478902634152
2025-08-05,3.4056056403219226
2025-08-06,3.170064973214016
2025-08-07,3.170064973214016
2025-08-08,3.170064973214016
2025-08-11,3.156722246514729
2025-08-12,3.200535872884984
2025-08-13,3.297116710300874
2025-08-14,3.203579819186331
2025-08-15,3.142074614132677
2025-08-18,3.146547059152409
2025-08-19,3.049101781895722
2025-08-20,3.0432623742854554
2025-08-21,3.0432623742854554
2025-08-22,3.0432623742854554
2025-08-25,3.076756190312196
2025-08-26,3.1446681993483736
2025-08-27,3.112206559346168
2025-08-28,3.201961641081074
2025-08-29,3.1813184333860027
2025-09-02,3.1679535711872373
2025-09-03,3.200132615378081
2025-09-04,3.2970435655085972
2025-09-05,3.281471967302265
2025-09-08,3.471280253117418
2025-09-09,3.479690168257527
2025-09-10,3.4972149350633996
2025-09-11,3.5422899565589963
2025-09-12,3.561395614601203
2025-09-15,3.648651356119543
2025-09-16,3.6781398016253566
2025-09-17,3.69515866961348
2025-09-18,3.792351637302689
2025-09-19,3.9022236495258804
2025-09-22,3.9224746181548387
2025-09-23,3.871393847568818
2025-09-24,3.8273921301866305
2025-09-25,3.7834774800144064
2025-09-26,3.7834774800144064
2025-09-29,3.776431976847024
2025-09-30,3.731895399267205
2025-10-01,3.9256231310521086
2025-10-02,3.9002762319293804
2025-10-03,3.8482520907691864
2025-10-06,3.9348061181148672
2025-10-07,3.8807632050947305
2025-10-08,3.9188526438741085
2025-10-09,3.9257185212842534
2025-10-10,3.753478821990284
2025-10-13,3.8954664839805058
2025-10-14,3.7395354646234917
2025-10-15,3.7646962224216862
2025-10-16,3.7374494209735305
2025-10-17,3.7824066758437365
2025-10-20,3.7907735075637694
2025-10-21,3.7295920047384885
2025-10-22,3.6288864025273018
2025-10-23,3.6715021851342042
2025-10-24,3.60653548939887
2025-10-27,3.69836431945762
2025-10-28,3.721646535530121
2025-10-29,3.7688680099012872
2025-10-30,3.6129488852382954
2025-10-31,3.6917603791375453
2025-11-03,3.7661318093142446
2025-11-04,3.5983503870724207
2025-11-05,3.6412117863472604
2025-11-06,3.5109866238161658
2025-11-07,3.5109866238161658
2025-11-10,3.599864698650947
2025-11-11,3.501628031930677
2025-11-12,3.499276099755435
2025-11-13,3.3741872171853364
2025-11-14,3.451237769686828
2025-11-17,3.3279978705012114
2025-11-18,3.2301076939108726
2025-11-19,3.2301076939108726
2025-11-20,3.2301076939108726
2025-11-21,3.2301076939108726
2025-11-24,3.251997160522929
2025-11-25,3.292133327784481
2025-11-26,3.2801921189622316
2025-11-28,3.2760867053985536
2025-12-01,3.2303556410464944
2025-12-02,3.2241155126532988
2025-12-03,3.2145296578396145
2025-12-04,3.2083871392811374
2025-12-05,3.213136897415355
2025-12-08,3.187883176560427
2025-12-09,3.1966095607011433
2025-12-10,3.2047387036302877
2025-12-11,3.18453275647288
2025-12-12,3.176377756885705
2025-12-15,3.1670767081848608
2025-12-16,3.1554541797315663
2025-12-17,3.110483022893719
2025-12-18,3.12627470902299
2025-12-19,3.135061308659985
2025-12-22,3.1397249943186822
2025-12-23,3.141587526975882
2025-12-24,3.2024902461022986
2025-12-26,3.1951163871993837
2025-12-29,3.253783856163531
2025-12-30,3.234577804444125
2025-12-31,3.1844753168656346
2026-01-02,3.3911982773339013
2026-01-05,3.4192319396646043
2026-01-06,3.4944470829280525
2026-01-07,3.482942880158941
2026-01-08,3.45105762384466
2026-01-09,3.5100575739608337
2026-01-12,3.5631277660590333
2026-01-13,3.5070629125776476
2026-01-14,3.4526495421799464
2026-01-15,3.575073543774484
2026-01-16,3.643620814442546
2026-01-20,3.61264161523808
2026-01-21,3.6823917035411573
2026-01-22,3.6004396795115814
2026-01-23,3.5485489647656814
2026-01-26,3.5513112177103565
2026-01-27,3.772510756667259
2026-01-28,3.893918888496464
2026-01-29,3.9658068517110463
2026-01-30,3.7528142958752806
2026-02-02,3.8883707797168627
2026-02-03,3.7460469552450224
2026-02-04,3.599842062182024
2026-02-05,3.599842062182024
2026-02-06,3.599842062182024
2026-02-09,3.5963570934606865
2026-02-10,3.580870754729293
2026-02-11,3.691492806327959
2026-02-12,3.6855941386181246
2026-02-13,3.692986366437051
2026-02-17,3.662990027853769
2026-02-18,3.703396669404803
2026-02-19,3.673450731832281
2026-02-20,3.7058627835618037
2026-02-23,3.6893705731984254
2026-02-24,3.655894064470419
2026-02-25,3.684111740093298
2026-02-26,3.6471736670662267
2026-02-27,3.6225491832575254
2026-03-02,3.6369948705444557
2026-03-03,3.5230561295488485
2026-03-04,3.5388530104762066
2026-03-05,3.488552226674492
2026-03-06,3.488552226674492
2026-03-09,3.550043445343986
2026-03-10,3.5466951877289876
2026-03-11,3.5711981049215904
2026-03-12,3.4733136813197527
2026-03-13,3.4550276969185942
2026-03-16,3.430605130253645
2026-03-17,3.4691276136726796
2026-03-18,3.469205133812549
2026-03-19,3.4353889684503263
2026-03-20,3.3940000729029123
2026-03-23,3.400294579616424
2026-03-24,3.400294579616424
2026-03-25,3.400294579616424
2026-03-26,3.400294579616424
2026-03-27,3.400294579616424
2026-03-30,3.400294579616424
2026-03-31,3.400294579616424
2026-04-01,3.400294579616424
2026-04-02,3.400294579616424
2026-04-06,3.400294579616424
2026-04-07,3.400294579616424
2026-04-08,3.400294579616424
2026-04-09,3.400294579616424
2026-04-10,3.400294579616424
2026-04-13,3.499719480865262
2026-04-14,3.495355594412337
2026-04-15,3.5363249617405197
2026-04-16,3.617573793061243
2026-04-17,3.700246280734706
2026-04-20,3.7302982978188757
2026-04-21,3.7910015003423676
2026-04-22,3.842549810772086
2026-04-23,3.991624744144247
2026-04-24,4.343842056495445
2026-04-27,4.330786585611179
2026-04-28,4.231019429945758
2026-04-29,4.310312277279484
2026-04-30,4.310312277279484
2026-05-01,4.310312277279484
2026-05-04,4.17433860521454
2026-05-05,4.322693751826255
2026-05-06,4.762523764909236
2026-05-07,4.527076905623256
2026-05-08,4.726626691529685
2026-05-11,4.7103339496169765
2026-05-12,4.467603641286578
2026-05-13,4.642771904738897
2026-05-14,4.703071540361044
2026-05-15,4.628966850929808
2026-05-18,4.481337079348112
2026-05-19,4.341391392921549
2026-05-20,4.341391392921549
2026-05-21,4.341391392921549
2026-05-22,4.341391392921549
2026-05-26,4.3779044900496356
2026-05-27,4.30127911424516
