Date,Value
2018-01-02,1.0
2018-01-03,1.0
2018-01-04,1.0
2018-01-05,1.0
2018-01-08,1.0243276923826676
2018-01-09,1.022997489136054
2018-01-10,1.0227144982435417
2018-01-11,1.0309463920954007
2018-01-12,1.0410748266118746
2018-01-16,1.0380035294433845
2018-01-17,1.0676603636065272
2018-01-18,1.0571724725884115
2018-01-19,1.0643337606453278
2018-01-22,1.086961926255087
2018-01-23,1.0938499022775274
2018-01-24,1.0611632623110587
2018-01-25,1.06795954342993
2018-01-26,1.1011790791445746
2018-01-29,1.1336714086793802
2018-01-30,1.1167631827083104
2018-01-31,1.101778067122561
2018-02-01,1.079164560396062
2018-02-02,1.067831863151575
2018-02-05,1.0341164889246266
2018-02-06,1.0341164889246266
2018-02-07,1.0341164889246266
2018-02-08,1.0341164889246266
2018-02-09,1.0341164889246266
2018-02-12,1.0498026143484205
2018-02-13,1.046188836845114
2018-02-14,1.0782273218497043
2018-02-15,1.0936766604881363
2018-02-16,1.0910016738895219
2018-02-20,1.1020403598007489
2018-02-21,1.083877584794278
2018-02-22,1.0835879345713337
2018-02-23,1.0974881652706259
2018-02-26,1.1043960836818647
2018-02-27,1.1036706124764322
2018-02-28,1.10561333871513
2018-03-01,1.1017466713994937
2018-03-02,1.1124671112074989
2018-03-05,1.1320963384803329
2018-03-06,1.147230086984344
2018-03-07,1.1476171715450967
2018-03-08,1.1511726312137216
2018-03-09,1.169647851224061
2018-03-12,1.157133176038251
2018-03-13,1.1456420191082426
2018-03-14,1.1534056735862404
2018-03-15,1.1553662740555906
2018-03-16,1.1522609753163742
2018-03-19,1.1438102455559411
2018-03-20,1.1636367547806565
2018-03-21,1.1548119717591137
2018-03-22,1.1365019970950339
2018-03-23,1.1221366857907897
2018-03-26,1.1203635724379974
2018-03-27,1.1081288912910752
2018-03-28,1.1023426671267262
2018-03-29,1.1023426671267262
2018-04-02,1.087850021856285
2018-04-03,1.0987528918716056
2018-04-04,1.1074902059444882
2018-04-05,1.1205341071332853
2018-04-06,1.1081367567660325
2018-04-09,1.1031229494131007
2018-04-10,1.1106086583860924
2018-04-11,1.109962602408431
2018-04-12,1.1239441316866334
2018-04-13,1.1146117471368577
2018-04-16,1.1200022432419323
2018-04-17,1.1304905148386213
2018-04-18,1.1317366056352212
2018-04-19,1.12363670769906
2018-04-20,1.1200345088471189
2018-04-23,1.118048220077101
2018-04-24,1.1183829147263802
2018-04-25,1.116907067005736
2018-04-26,1.1306498861944279
2018-04-27,1.1270448642672077
2018-04-30,1.1211881864336264
2018-05-01,1.132770509182249
2018-05-02,1.1312679974240036
2018-05-03,1.1261005761022846
2018-05-04,1.1333611809851256
2018-05-07,1.141180225928896
2018-05-08,1.1477811573216452
2018-05-09,1.1589542613734967
2018-05-10,1.1612835077858858
2018-05-11,1.1541389248704197
2018-05-14,1.1519879115446434
2018-05-15,1.1500099940132547
2018-05-16,1.1501036456093368
2018-05-17,1.1513828212580939
2018-05-18,1.147007469644381
2018-05-21,1.158984829108513
2018-05-22,1.156052659735091
2018-05-23,1.1642472691452752
2018-05-24,1.1650425266418962
2018-05-25,1.1689568779487511
2018-05-29,1.166108186495677
2018-05-30,1.1708257847154135
2018-05-31,1.1658322475007659
2018-06-01,1.1775979156972554
2018-06-04,1.1745728070626904
2018-06-05,1.1664863840775526
2018-06-06,1.1678199370716444
2018-06-07,1.1551488015085547
2018-06-08,1.150698102188411
2018-06-11,1.1675032250883244
2018-06-12,1.1736459151767358
2018-06-13,1.1925298966899298
2018-06-14,1.1926199431206408
2018-06-15,1.193714573576618
2018-06-18,1.2170966374219034
2018-06-19,1.2012277928330914
2018-06-20,1.1948046873551132
2018-06-21,1.1619334835406914
2018-06-22,1.1676009486267729
2018-06-25,1.110593231071353
2018-06-26,1.1212920148672763
2018-06-27,1.1148340012709945
2018-06-28,1.1184433106682221
2018-06-29,1.1155802631746834
2018-07-02,1.1011343008073537
2018-07-03,1.083226398199999
2018-07-05,1.0888736050674113
2018-07-06,1.0959487361716223
2018-07-09,1.0996906973911702
2018-07-10,1.0953188605244775
2018-07-11,1.0882685871518385
2018-07-12,1.094119649907888
2018-07-13,1.0718723675851072
2018-07-16,1.0854354441030403
2018-07-17,1.0764510592821883
2018-07-18,1.0757926616827893
2018-07-19,1.0711839412752464
2018-07-20,1.0642709548463087
2018-07-23,1.0548863065432257
2018-07-24,1.0250692919109752
2018-07-25,1.0371755219326324
2018-07-26,1.1111330445068335
2018-07-27,1.1177855984042193
2018-07-30,1.1178058203244057
2018-07-31,1.0814499868737524
2018-08-01,1.090890722149764
2018-08-02,1.0894267528919788
2018-08-03,1.079550977265745
2018-08-06,1.105774244645744
2018-08-07,1.1116910359711294
2018-08-08,1.0866774389848506
2018-08-09,1.0708762733287778
2018-08-10,1.0695594781299795
2018-08-13,1.086002178007926
2018-08-14,1.1040724000655417
2018-08-15,1.0897961937408347
2018-08-16,1.0803187053007772
2018-08-17,1.0995154015669923
2018-08-20,1.1081608368583875
2018-08-21,1.1219175597463755
2018-08-22,1.148494618014181
2018-08-23,1.2067258995181538
2018-08-24,1.2760801963676336
2018-08-27,1.3223052548431422
2018-08-28,1.3225991992381936
2018-08-29,1.3278836293659846
2018-08-30,1.3057593983071218
2018-08-31,1.3272424910172913
2018-09-04,1.434090117770336
2018-09-05,1.4377467749117243
2018-09-06,1.461496909790846
2018-09-07,1.4552935214206184
2018-09-10,1.5612046534387156
2018-09-11,1.578304457556233
2018-09-12,1.6281524908566056
2018-09-13,1.566074330362476
2018-09-14,1.6452877737504332
2018-09-17,1.6329000082819438
2018-09-18,1.6301614104098539
2018-09-19,1.602578930604035
2018-09-20,1.5959089668391329
2018-09-21,1.5845437106578437
2018-09-24,1.6434684113625853
2018-09-25,1.6543480709591267
2018-09-26,1.6372650773489914
2018-09-27,1.6297820173507582
2018-09-28,1.581996637912458
2018-10-01,1.5808026308885417
2018-10-02,1.4744482834668844
2018-10-03,1.4406995634230475
2018-10-04,1.4406995634230475
2018-10-05,1.4406995634230475
2018-10-08,1.4402216750785464
2018-10-09,1.4450210551997555
2018-10-10,1.4181222130562983
2018-10-11,1.4181222130562983
2018-10-12,1.4181222130562983
2018-10-15,1.4205121721031775
2018-10-16,1.4271788916719785
2018-10-17,1.435292171374318
2018-10-18,1.43239907952354
2018-10-19,1.432524821648062
2018-10-22,1.4332975987960834
2018-10-23,1.4351627317144136
2018-10-24,1.4295616515657137
2018-10-25,1.4411894843698954
2018-10-26,1.4347078683539507
2018-10-29,1.4406439539129656
2018-10-30,1.4406439539129656
2018-10-31,1.4406439539129656
2018-11-01,1.4406439539129656
2018-11-02,1.4406439539129656
2018-11-05,1.4406439539129656
2018-11-06,1.4406439539129656
2018-11-07,1.4406439539129656
2018-11-08,1.4406439539129656
2018-11-09,1.4406439539129656
2018-11-12,1.4406439539129656
2018-11-13,1.4406439539129656
2018-11-14,1.4406439539129656
2018-11-15,1.4406439539129656
2018-11-16,1.4406439539129656
2018-11-19,1.4406439539129656
2018-11-20,1.4406439539129656
2018-11-21,1.4406439539129656
2018-11-23,1.4406439539129656
2018-11-26,1.4406439539129656
2018-11-27,1.4406439539129656
2018-11-28,1.4406439539129656
2018-11-29,1.4406439539129656
2018-11-30,1.4406439539129656
2018-12-03,1.4406439539129656
2018-12-04,1.4406439539129656
2018-12-06,1.4406439539129656
2018-12-07,1.4406439539129656
2018-12-10,1.4406439539129656
2018-12-11,1.4406439539129656
2018-12-12,1.4406439539129656
2018-12-13,1.4406439539129656
2018-12-14,1.4406439539129656
2018-12-17,1.4406439539129656
2018-12-18,1.4406439539129656
2018-12-19,1.4406439539129656
2018-12-20,1.4406439539129656
2018-12-21,1.4406439539129656
2018-12-24,1.4406439539129656
2018-12-26,1.4406439539129656
2018-12-27,1.4406439539129656
2018-12-28,1.4406439539129656
2018-12-31,1.4406439539129656
2019-01-02,1.4406439539129656
2019-01-03,1.4406439539129656
2019-01-04,1.4406439539129656
2019-01-07,1.4406439539129656
2019-01-08,1.4406439539129656
2019-01-09,1.4406439539129656
2019-01-10,1.4406439539129656
2019-01-11,1.4406439539129656
2019-01-14,1.4406439539129656
2019-01-15,1.4406439539129656
2019-01-16,1.4406439539129656
2019-01-17,1.4406439539129656
2019-01-18,1.4406439539129656
2019-01-22,1.4406439539129656
2019-01-23,1.4406439539129656
2019-01-24,1.4406439539129656
2019-01-25,1.4406439539129656
2019-01-28,1.4406439539129656
2019-01-29,1.4406439539129656
2019-01-30,1.4406439539129656
2019-01-31,1.4406439539129656
2019-02-01,1.4406439539129656
2019-02-04,1.4406439539129656
2019-02-05,1.4406439539129656
2019-02-06,1.4406439539129656
2019-02-07,1.4406439539129656
2019-02-08,1.4406439539129656
2019-02-11,1.4406439539129656
2019-02-12,1.4406439539129656
2019-02-13,1.4406439539129656
2019-02-14,1.4406439539129656
2019-02-15,1.4406439539129656
2019-02-19,1.4354095821658728
2019-02-20,1.4463453383463718
2019-02-21,1.451647110096281
2019-02-22,1.4754804698386605
2019-02-25,1.48926155625737
2019-02-26,1.4107164470651532
2019-02-27,1.40530209399309
2019-02-28,1.4008831496142493
2019-03-01,1.4035105917549147
2019-03-04,1.3777799035871414
2019-03-05,1.3551666039183965
2019-03-06,1.3535797564226246
2019-03-07,1.3640876073186243
2019-03-08,1.3797916578991634
2019-03-11,1.4121235034215731
2019-03-12,1.4157031174372905
2019-03-13,1.4289822895145965
2019-03-14,1.4536930568492337
2019-03-15,1.4565798295574603
2019-03-18,1.486737284523035
2019-03-19,1.4980247736901733
2019-03-20,1.5187434938990285
2019-03-21,1.6029303069559095
2019-03-22,1.5481093934392551
2019-03-25,1.559891090336218
2019-03-26,1.5933686335505484
2019-03-27,1.5573927298572694
2019-03-28,1.5724554007117781
2019-03-29,1.5753912243538992
2019-04-01,1.5779816699569469
2019-04-02,1.5632248596852856
2019-04-03,1.555024921338911
2019-04-04,1.4389259510793289
2019-04-05,1.4168557404986304
2019-04-08,1.3971860097809874
2019-04-09,1.3654286578919268
2019-04-10,1.379953331661382
2019-04-11,1.3789686326874082
2019-04-12,1.3804457046260037
2019-04-15,1.3768628087714117
2019-04-16,1.3595376111293893
2019-04-17,1.3199881035717893
2019-04-18,1.3018699405952767
2019-04-22,1.330811127195838
2019-04-23,1.362558376959419
2019-04-24,1.37547610686847
2019-04-25,1.342102975005432
2019-04-26,1.3597209618556914
2019-04-29,1.3597845294003816
2019-04-30,1.349602648065297
2019-05-01,1.3312813868366673
2019-05-02,1.3737005156447124
2019-05-03,1.3886869751849364
2019-05-06,1.3609096173009316
2019-05-07,1.3184951577711714
2019-05-08,1.3239514182048207
2019-05-09,1.3209988613082837
2019-05-10,1.3554727093192966
2019-05-13,1.2979742099947984
2019-05-14,1.315383525263667
2019-05-15,1.3163938626684497
2019-05-16,1.2895804442194638
2019-05-17,1.277300626970258
2019-05-20,1.2699917572774788
2019-05-21,1.2743744452243249
2019-05-22,1.2808714601346267
2019-05-23,1.2621035746165818
2019-05-24,1.2683814369660045
2019-05-28,1.2781378454512113
2019-05-29,1.2538925546943442
2019-05-30,1.2666319330001712
2019-05-31,1.2447406421173495
2019-06-03,1.2440074551665248
2019-06-04,1.2440074551665248
2019-06-05,1.2440074551665248
2019-06-06,1.2440074551665248
2019-06-07,1.2440074551665248
2019-06-10,1.2394814756680166
2019-06-11,1.2057530304439943
2019-06-12,1.2245334890401371
2019-06-13,1.2205066102797293
2019-06-14,1.2121022979022598
2019-06-17,1.211027558436615
2019-06-18,1.2127468428491595
2019-06-19,1.2862622375744681
2019-06-20,1.2872792189112707
2019-06-21,1.2709717834365217
2019-06-24,1.2242507804509895
2019-06-25,1.175328152854107
2019-06-26,1.1562355012503214
2019-06-27,1.1562355012503214
2019-06-28,1.1562355012503214
2019-07-01,1.1381624804668529
2019-07-02,1.1525278930817073
2019-07-03,1.154185148374882
2019-07-05,1.1605532510296739
2019-07-08,1.184011459167019
2019-07-09,1.2060333519087305
2019-07-10,1.212108154302145
2019-07-11,1.1913205906744377
2019-07-12,1.1847190783200001
2019-07-15,1.2324049798173164
2019-07-16,1.2101644275167676
2019-07-17,1.2204737841829858
2019-07-18,1.2204841693043078
2019-07-19,1.2094188420280734
2019-07-22,1.2254182763421104
2019-07-23,1.2276528406844815
2019-07-24,1.2377101888605404
2019-07-25,1.2367710474128786
2019-07-26,1.2491307559092315
2019-07-29,1.2077819969999934
2019-07-30,1.204739475172125
2019-07-31,1.1680736308274613
2019-08-01,1.2121162331541995
2019-08-02,1.1948813899432267
2019-08-05,1.172162437991652
2019-08-06,1.1983286474281483
2019-08-07,1.2152540894341979
2019-08-08,1.249400051390965
2019-08-09,1.2722350972838288
2019-08-12,1.261919567714187
2019-08-13,1.271903126988889
2019-08-14,1.2358544515053869
2019-08-15,1.234493296419177
2019-08-16,1.251912738589767
2019-08-19,1.2581328017816948
2019-08-20,1.2795746633273852
2019-08-21,1.3095391119395419
2019-08-22,1.3076462857783255
2019-08-23,1.2912835607819066
2019-08-26,1.3215774202024515
2019-08-27,1.3409770064073068
2019-08-28,1.3211607006420698
2019-08-29,1.3173135177862627
2019-08-30,1.3019609805461045
2019-09-03,1.299835451212724
2019-09-04,1.3026348137578883
2019-09-05,1.3126110073250885
2019-09-06,1.2901233878876
2019-09-09,1.2478230464397524
2019-09-10,1.2439171414980887
2019-09-11,1.2439171414980887
2019-09-12,1.2439171414980887
2019-09-13,1.2439171414980887
2019-09-16,1.2618623952513301
2019-09-17,1.2764218703308337
2019-09-18,1.2943949373913914
2019-09-19,1.2829295615125638
2019-09-20,1.267450405410802
2019-09-23,1.281672117293106
2019-09-24,1.2634693516328417
2019-09-25,1.2926243038568401
2019-09-26,1.287385696929078
2019-09-27,1.2465700830233684
2019-09-30,1.2525042486259725
2019-10-01,1.2466742639264519
2019-10-02,1.229875269809594
2019-10-03,1.239290096653952
2019-10-04,1.2623844174619512
2019-10-07,1.2605956270494107
2019-10-08,1.227251152563252
2019-10-09,1.247017142145364
2019-10-10,1.2487102161390804
2019-10-11,1.2638625024781454
2019-10-14,1.2576590096822753
2019-10-15,1.2803966292238649
2019-10-16,1.2582665072966925
2019-10-17,1.2679085182469552
2019-10-18,1.2570326260502451
2019-10-21,1.2815309455935524
2019-10-22,1.2717659163741861
2019-10-23,1.2522693338876227
2019-10-24,1.338286564995889
2019-10-25,1.3493605800820672
2019-10-28,1.3848397591852237
2019-10-29,1.3595470841441886
2019-10-30,1.372208440595518
2019-10-31,1.3469450099105524
2019-11-01,1.3709034122621124
2019-11-04,1.3773749943913707
2019-11-05,1.3686418263869577
2019-11-06,1.3675785779195027
2019-11-07,1.363289994823298
2019-11-08,1.3707926578262877
2019-11-11,1.3697797868676869
2019-11-12,1.3680368645015224
2019-11-13,1.3794404439689099
2019-11-14,1.3840651679149019
2019-11-15,1.4046209350459866
2019-11-18,1.3996741960824852
2019-11-19,1.3873464842143206
2019-11-20,1.374020316272823
2019-11-21,1.3345635482724123
2019-11-22,1.3329541693978335
2019-11-25,1.3224009696307013
2019-11-26,1.2945403055248637
2019-11-27,1.3062143437192324
2019-11-29,1.299214325500409
2019-12-02,1.3016703707443928
2019-12-03,1.3071131855195648
2019-12-04,1.314306696196938
2019-12-05,1.307976860262608
2019-12-06,1.3188303188550483
2019-12-09,1.3140649555787003
2019-12-10,1.34069086683728
2019-12-11,1.3486685953802353
2019-12-12,1.414822565439223
2019-12-13,1.3880287786499967
2019-12-16,1.453008549345451
2019-12-17,1.455236783721127
2019-12-18,1.4747150422065662
2019-12-19,1.504736782047655
2019-12-20,1.5300091297900473
2019-12-23,1.5784951798440274
2019-12-24,1.6083897537737957
2019-12-26,1.6209220673262366
2019-12-27,1.612245290954034
2019-12-30,1.570758537783481
2019-12-31,1.5835216138094488
2020-01-02,1.661281686708084
2020-01-03,1.677524597722
2020-01-06,1.6904922593612282
2020-01-07,1.7220423385186154
2020-01-08,1.7596302130014179
2020-01-09,1.7579603674196376
2020-01-10,1.73828740928652
2020-01-13,1.8384870499432455
2020-01-14,1.8546550623856084
2020-01-15,1.822801850881995
2020-01-16,1.8336892234310294
2020-01-17,1.8474741743959706
2020-01-21,1.920536623651814
2020-01-22,1.9702291453176968
2020-01-23,1.9800635518468486
2020-01-24,1.9428314952227383
2020-01-27,1.8908616515860885
2020-01-28,1.9080500437525325
2020-01-29,1.93532315509069
2020-01-30,2.0511127923134156
2020-01-31,2.0700045286803364
2020-02-03,2.322507263040036
2020-02-04,2.5575601445543694
2020-02-05,2.3730885039201457
2020-02-06,2.3686214370196894
2020-02-07,2.3785078599482583
2020-02-10,2.4370776185132916
2020-02-11,2.4405246127535944
2020-02-12,2.498320271058243
2020-02-13,2.5299056072920267
2020-02-14,2.5311062546483596
2020-02-18,2.5753476913306272
2020-02-19,2.613512515242885
2020-02-20,2.5610206859127
2020-02-21,2.425262267144711
2020-02-24,2.4434672600589953
2020-02-25,2.387447903813565
2020-02-26,2.4059517838460196
2020-02-27,2.3312459208247
2020-02-28,2.3704726494923234
2020-03-02,2.411224957884113
2020-03-03,2.383269678988486
2020-03-04,2.467875665686156
2020-03-05,2.4355653440567053
2020-03-06,2.4276769485349003
2020-03-09,2.3321368576530457
2020-03-10,2.3321368576530457
2020-03-11,2.3321368576530457
2020-03-12,2.3321368576530457
2020-03-13,2.3321368576530457
2020-03-16,2.3321368576530457
2020-03-17,2.3321368576530457
2020-03-18,2.3321368576530457
2020-03-19,2.3321368576530457
2020-03-20,2.3321368576530457
2020-03-23,2.3321368576530457
2020-03-24,2.3321368576530457
2020-03-25,2.3321368576530457
2020-03-26,2.3321368576530457
2020-03-27,2.3321368576530457
2020-03-30,2.3321368576530457
2020-03-31,2.3321368576530457
2020-04-01,2.3321368576530457
2020-04-02,2.3321368576530457
2020-04-03,2.3321368576530457
2020-04-06,2.3321368576530457
2020-04-07,2.3321368576530457
2020-04-08,2.3321368576530457
2020-04-09,2.3321368576530457
2020-04-13,2.314098129377934
2020-04-14,2.4352351640905816
2020-04-15,2.517327459734891
2020-04-16,2.557567050295223
2020-04-17,2.5403276881100565
2020-04-20,2.660238453934375
2020-04-21,2.5156950242557095
2020-04-22,2.5874197034647906
2020-04-23,2.5921021938196853
2020-04-24,2.6771788448470972
2020-04-27,2.763450648746174
2020-04-28,2.6253739190414347
2020-04-29,2.606645416078865
2020-04-30,2.5822737376275695
2020-05-01,2.6092458543679
2020-05-04,2.7347113185587286
2020-05-05,2.7368852411311857
2020-05-06,2.777838486805294
2020-05-07,2.8817851586405334
2020-05-08,2.8904451330123413
2020-05-11,2.9345540293725474
2020-05-12,2.9236549275804347
2020-05-13,2.90859906274336
2020-05-14,2.9284384851448193
2020-05-15,2.942465492578302
2020-05-18,2.8745568393577807
2020-05-19,2.9498635459850693
2020-05-20,3.0316715929610236
2020-05-21,2.9981825495594974
2020-05-22,3.0546164303522483
2020-05-26,2.989264858586223
2020-05-27,2.9256708163788083
2020-05-28,2.9791644802457604
2020-05-29,3.552290078352577
2020-06-01,3.910225516445995
2020-06-02,3.7887478447807497
2020-06-03,3.9289490339753126
2020-06-04,3.806901310736894
2020-06-05,3.6975551857507356
2020-06-08,3.7901963480481906
2020-06-09,3.7749206901876438
2020-06-10,3.8804702890041987
2020-06-11,3.78126258151023
2020-06-12,3.7388361849212703
2020-06-15,3.8947980775030793
2020-06-16,3.9042585063598763
2020-06-17,3.9184039073577805
2020-06-18,4.102260033530915
2020-06-19,4.0099925086222
2020-06-22,4.109243280580099
2020-06-23,4.105823660600819
2020-06-24,4.057019319129085
2020-06-25,4.158456493565591
2020-06-26,3.9171352789352136
2020-06-29,3.8921506723192962
2020-06-30,4.011051623726622
2020-07-01,4.101146007685644
2020-07-02,4.164315875428316
2020-07-06,4.229875415285086
2020-07-07,4.2133545312517455
2020-07-08,4.504506269706143
2020-07-09,4.682514089746316
2020-07-10,4.631252697848611
2020-07-13,4.319709732381742
2020-07-14,4.247547038417327
2020-07-15,4.200365008172131
2020-07-16,4.1513614474892515
2020-07-17,4.208927007339159
2020-07-20,4.506387271434193
2020-07-21,4.368463398442026
2020-07-22,4.393737394654121
2020-07-23,4.258422111838641
2020-07-24,4.056621318010435
2020-07-27,4.234780687811708
2020-07-28,4.169311711978183
2020-07-29,4.303193838302267
2020-07-30,4.383158292795121
2020-07-31,4.424707570036717
2020-08-03,4.562330148514421
2020-08-04,4.563089468395318
2020-08-05,4.694587394129394
2020-08-06,4.643546768977258
2020-08-07,4.478822702724319
2020-08-10,4.226959530372857
2020-08-11,4.182464965337731
2020-08-12,4.203760066935148
2020-08-13,4.28690803644527
2020-08-14,4.285790900238959
2020-08-17,4.551042228003974
2020-08-18,4.651584929724276
2020-08-19,4.6475514821859
2020-08-20,4.816849122203937
2020-08-21,4.849445019592791
2020-08-24,4.821388082968243
2020-08-25,4.854951523631401
2020-08-26,5.007159633538016
2020-08-27,5.090625680756945
2020-08-28,5.016822421044042
2020-08-31,5.311855435488763
2020-09-01,5.162208543706601
2020-09-02,4.757009585854135
2020-09-03,4.757009585854135
2020-09-04,4.757009585854135
2020-09-08,4.7785604018773435
2020-09-09,4.905122654968029
2020-09-10,4.851253226795805
2020-09-11,4.813095738230057
2020-09-14,4.902323631175286
2020-09-15,4.939273554130292
2020-09-16,4.885643013640573
2020-09-17,4.850467666412485
2020-09-18,4.8140217721856935
2020-09-21,4.858485369250752
2020-09-22,4.884193558989541
2020-09-23,4.773817510845042
2020-09-24,4.804256523911057
2020-09-25,4.883196170920382
2020-09-28,4.9189661404179486
2020-09-29,4.942153771082814
2020-09-30,4.992170372815415
2020-10-01,5.011213407394414
2020-10-02,4.927560692650982
2020-10-05,5.004559271999207
2020-10-06,5.007214634329625
2020-10-07,5.078914809775792
2020-10-08,5.067407864107161
2020-10-09,5.088179640014015
2020-10-12,5.140516882186007
2020-10-13,5.1415852983329255
2020-10-14,5.101362016184432
2020-10-15,5.068350767712884
2020-10-16,5.056389834003378
2020-10-19,5.007092872390966
2020-10-20,5.0268124009305915
2020-10-21,5.005973228385982
2020-10-22,4.952709406507239
2020-10-23,4.97594320881967
2020-10-26,4.907734993265791
2020-10-27,4.904915721181126
2020-10-28,4.862819267208635
2020-10-29,4.910068313520668
2020-10-30,4.880124496149231
2020-11-02,4.901546990515021
2020-11-03,4.954435729353486
2020-11-04,4.97408569680989
2020-11-05,5.1195743611617575
2020-11-06,5.142681585560555
2020-11-09,5.14741785276929
2020-11-10,5.1321632526982
2020-11-11,5.211991421075178
2020-11-12,5.156528959424192
2020-11-13,5.176804081771615
2020-11-16,5.265135462292664
2020-11-17,5.25502471923246
2020-11-18,5.215662567521689
2020-11-19,5.223934427319743
2020-11-20,5.191251317889054
2020-11-23,5.175824469840012
2020-11-24,5.220957065757656
2020-11-25,5.193844525768409
2020-11-27,5.200386867269355
2020-11-30,5.222351615809191
2020-12-01,5.268173770995136
2020-12-02,5.23832398014723
2020-12-03,5.241551461765816
2020-12-04,5.3375393154384945
2020-12-07,5.339757088334405
2020-12-08,5.347067045381708
2020-12-09,5.314630546153697
2020-12-10,5.304978160428895
2020-12-11,5.2309460421734695
2020-12-14,5.212046671852489
2020-12-15,5.194425823484687
2020-12-16,5.206945386466135
2020-12-17,5.4944321742362074
2020-12-18,5.539797690654169
2020-12-21,5.575357190953076
2020-12-22,5.66360225719121
2020-12-23,5.503603285875352
2020-12-24,5.531434734020145
2020-12-28,5.4141544823022905
2020-12-29,5.406697673127617
2020-12-30,5.408075445068016
2020-12-31,5.380125186356807
2021-01-04,5.269891754639598
2021-01-05,5.309240980255204
2021-01-06,5.183426287881403
2021-01-07,5.183426287881403
2021-01-08,5.183426287881403
2021-01-11,5.166382131821722
2021-01-12,5.29873564535555
2021-01-13,5.230812579321928
2021-01-14,5.19282968602799
2021-01-15,5.064540314794385
2021-01-19,5.148580181375577
2021-01-20,5.217686748429022
2021-01-21,5.139261555881212
2021-01-22,5.173498422464101
2021-01-25,5.207851409275667
2021-01-26,5.090960274263023
2021-01-27,4.984619517945205
2021-01-28,4.896957514390355
2021-01-29,4.769111261144241
2021-02-01,4.893517486719627
2021-02-02,5.044343781624201
2021-02-03,4.972637255847548
2021-02-04,5.022153731215397
2021-02-05,5.023784594458554
2021-02-08,5.0452432138947865
2021-02-09,5.017392575078065
2021-02-10,4.963907914520476
2021-02-11,5.022182001737803
2021-02-12,5.1149346129496145
2021-02-16,5.05768443760658
2021-02-17,4.962233084057365
2021-02-18,4.969713856757711
2021-02-19,4.969171740611336
2021-02-22,4.778006617111828
2021-02-23,4.602234997680484
2021-02-24,4.602234997680484
2021-02-25,4.602234997680484
2021-02-26,4.602234997680484
2021-03-01,4.615071675320827
2021-03-02,4.525308186115938
2021-03-03,4.4816528876344774
2021-03-04,4.3623245687415215
2021-03-05,4.347117938219213
2021-03-08,4.2353284001809985
2021-03-09,4.369756400969588
2021-03-10,4.307187920290036
2021-03-11,4.3984935875784785
2021-03-12,4.351657196427503
2021-03-15,4.370593366936946
2021-03-16,4.437127966325736
2021-03-17,4.491476535266848
2021-03-18,4.376714950884332
2021-03-19,4.390769672475188
2021-03-22,4.4432842861073745
2021-03-23,4.342712943540008
2021-03-24,4.388188142847519
2021-03-25,4.37489234523809
2021-03-26,4.4608329254833405
2021-03-29,4.449618283389827
2021-03-30,4.434385905491917
2021-03-31,4.508273227425179
2021-04-01,4.603677611301267
2021-04-05,4.687519016658637
2021-04-06,4.619672134554351
2021-04-07,4.6397786391182265
2021-04-08,4.669581431242605
2021-04-09,4.707359085120898
2021-04-12,4.570722687317078
2021-04-13,4.565088715909374
2021-04-14,4.520073668240746
2021-04-15,4.551495434964233
2021-04-16,4.535568786942521
2021-04-19,4.4514429300565
2021-04-20,4.430781738460043
2021-04-21,4.430781738460043
2021-04-22,4.430781738460043
2021-04-23,4.430781738460043
2021-04-26,4.47008794570686
2021-04-27,4.449884113660003
2021-04-28,4.45092117633817
2021-04-29,4.43175017256133
2021-04-30,4.392266842134658
2021-05-03,4.401087023961616
2021-05-04,4.285770845555771
2021-05-05,4.284490167588514
2021-05-06,4.318532296170504
2021-05-07,4.375985451779128
2021-05-10,4.188914521966441
2021-05-11,4.193925924609077
2021-05-12,4.123795991984346
2021-05-13,4.123795991984346
2021-05-14,4.123795991984346
2021-05-17,4.125606886341665
2021-05-18,4.097697338133786
2021-05-19,4.103048589002761
2021-05-20,4.126581904246029
2021-05-21,4.120257375885001
2021-05-24,4.157088069571563
2021-05-25,4.1674099436904495
2021-05-26,4.161933208294833
2021-05-27,4.182115031184354
2021-05-28,4.168282954417199
2021-06-01,4.175261393407103
2021-06-02,4.170808369235729
2021-06-03,4.155241451243506
2021-06-04,4.174685257883221
2021-06-07,4.166821934888538
2021-06-08,4.160436353909391
2021-06-09,4.143978223943948
2021-06-10,4.1512446380946315
2021-06-11,4.147299094441772
2021-06-14,4.17847964852056
2021-06-15,4.1517354588038415
2021-06-16,4.135613058758294
2021-06-17,4.251605435790053
2021-06-18,4.22693858173762
2021-06-21,4.211080626682395
2021-06-22,4.28648154590886
2021-06-23,4.311366708544881
2021-06-24,4.337059711399727
2021-06-25,4.3108899917617425
2021-06-28,4.468345359906996
2021-06-29,4.460853705924393
2021-06-30,4.4442993465272975
2021-07-01,4.4905377042725405
2021-07-02,4.523419850228332
2021-07-06,4.541612688347316
2021-07-07,4.496224065603316
2021-07-08,4.425968099817444
2021-07-09,4.458742650129014
2021-07-12,4.521311165358175
2021-07-13,4.487377992372985
2021-07-14,4.425381961567085
2021-07-15,4.345627573025192
2021-07-16,4.334777252133163
2021-07-19,4.320804845274231
2021-07-20,4.3574799212249715
2021-07-21,4.385266878133793
2021-07-22,4.416437417667803
2021-07-23,4.493019687259757
2021-07-26,4.5037051061861995
2021-07-27,4.474550285340056
2021-07-28,4.49294710194453
2021-07-29,4.448980262868264
2021-07-30,4.452001187238096
2021-08-02,4.432368803343874
2021-08-03,4.435818938551344
2021-08-04,4.473809799554875
2021-08-05,4.491350739741123
2021-08-06,4.48506674342589
2021-08-09,4.480856122640405
2021-08-10,4.468228581535453
2021-08-11,4.468931380884465
2021-08-12,4.487936898163321
2021-08-13,4.497955593704087
2021-08-16,4.513835593656911
2021-08-17,4.471831017114912
2021-08-18,4.455727205974121
2021-08-19,4.476441221328687
2021-08-20,4.480470825195015
2021-08-23,4.520531219328962
2021-08-24,4.574867224767091
2021-08-25,4.580880208910111
2021-08-26,4.4888281452840975
2021-08-27,4.549437216275453
2021-08-30,4.60057008183428
2021-08-31,4.621983722364903
2021-09-01,4.573977019160248
2021-09-02,4.641206305546513
2021-09-03,4.70008553424654
2021-09-07,4.651560078516708
2021-09-08,4.671148154036285
2021-09-09,4.690342311320308
2021-09-10,4.54826019522077
2021-09-13,4.493964922830795
2021-09-14,4.543445292993735
2021-09-15,4.5603954136202525
2021-09-16,4.646515224721329
2021-09-17,4.629222867415033
2021-09-20,4.607842022467377
2021-09-21,4.659974555863879
2021-09-22,4.767620696852964
2021-09-23,4.755063781825882
2021-09-24,4.738058829474724
2021-09-27,4.589152781932821
2021-09-28,4.465364034425406
2021-09-29,4.466284592637418
2021-09-30,4.551357070623862
2021-10-01,4.615480457772721
2021-10-04,4.435743050852593
2021-10-05,4.517753670551956
2021-10-06,4.542065798534329
2021-10-07,4.521349245684627
2021-10-08,4.490873461224373
2021-10-11,4.536431276474081
2021-10-12,4.610907280155926
2021-10-13,4.78555359368944
2021-10-14,4.738809226969677
2021-10-15,4.769039855022531
2021-10-18,4.83599265278391
2021-10-19,4.838812221208309
2021-10-20,4.8530986946881445
2021-10-21,4.8796410926502745
2021-10-22,4.89602448018927
2021-10-25,4.867719151081761
2021-10-26,4.881457234904211
2021-10-27,4.779698950661816
2021-10-28,4.859196190105491
2021-10-29,4.987068732178308
2021-11-01,4.9536236690136315
2021-11-02,4.948485529190597
2021-11-03,4.891137009585078
2021-11-04,4.950716280182544
2021-11-05,5.268372961304426
2021-11-08,5.4217515726849985
2021-11-09,5.499648455994233
2021-11-10,5.336982657986553
2021-11-11,5.383075557402218
2021-11-12,5.4457027396339885
2021-11-15,5.417484187511361
2021-11-16,5.472249698346269
2021-11-17,5.39505336929561
2021-11-18,5.415016949254511
2021-11-19,5.472753907375694
2021-11-22,5.291704510942404
2021-11-23,5.107820277911555
2021-11-24,5.1457292725505415
2021-11-26,5.108319680703188
2021-11-29,5.220780223567602
2021-11-30,5.153570735840242
2021-12-01,4.960309331275948
2021-12-02,5.002055955811866
2021-12-03,4.860777402473764
2021-12-06,4.7399440053330215
2021-12-07,4.7399440053330215
2021-12-08,4.7399440053330215
2021-12-09,4.7399440053330215
2021-12-10,4.7399440053330215
2021-12-13,4.618296316798016
2021-12-14,4.558616978412902
2021-12-15,4.733496540352631
2021-12-16,4.535139597181942
2021-12-17,4.600179320785465
2021-12-20,4.641531617966487
2021-12-21,4.717948281413648
2021-12-22,4.804387653679789
2021-12-23,4.824339155282837
2021-12-27,4.942941376619601
2021-12-28,4.84835404826706
2021-12-29,4.876509032507007
2021-12-30,4.81903302684141
2021-12-31,4.821600094495628
2022-01-03,4.865142508720522
2022-01-04,4.865646697367813
2022-01-05,4.647994468714055
2022-01-06,4.664514610619564
2022-01-07,4.554892637510774
2022-01-10,4.498653961391174
2022-01-11,4.502355373223496
2022-01-12,4.513220898125022
2022-01-13,4.519310440820612
2022-01-14,4.540085716506562
2022-01-18,4.443874403702296
2022-01-19,4.4096067616561125
2022-01-20,4.384418993435817
2022-01-21,4.384418993435817
2022-01-24,4.384418993435817
2022-01-25,4.384418993435817
2022-01-26,4.384418993435817
2022-01-27,4.384418993435817
2022-01-28,4.384418993435817
2022-01-31,4.384418993435817
2022-02-01,4.384418993435817
2022-02-02,4.384418993435817
2022-02-03,4.384418993435817
2022-02-04,4.384418993435817
2022-02-07,4.384418993435817
2022-02-08,4.384418993435817
2022-02-09,4.384418993435817
2022-02-10,4.384418993435817
2022-02-11,4.384418993435817
2022-02-14,4.384418993435817
2022-02-15,4.384418993435817
2022-02-16,4.384418993435817
2022-02-17,4.384418993435817
2022-02-18,4.384418993435817
2022-02-22,4.384418993435817
2022-02-23,4.384418993435817
2022-02-24,4.384418993435817
2022-02-25,4.384418993435817
2022-02-28,4.384418993435817
2022-03-01,4.384418993435817
2022-03-02,4.384418993435817
2022-03-03,4.384418993435817
2022-03-04,4.384418993435817
2022-03-07,4.384418993435817
2022-03-08,4.384418993435817
2022-03-09,4.384418993435817
2022-03-10,4.384418993435817
2022-03-11,4.384418993435817
2022-03-14,4.384418993435817
2022-03-15,4.384418993435817
2022-03-16,4.384418993435817
2022-03-17,4.384418993435817
2022-03-18,4.384418993435817
2022-03-21,4.384418993435817
2022-03-22,4.384418993435817
2022-03-23,4.384418993435817
2022-03-24,4.384418993435817
2022-03-25,4.384418993435817
2022-03-28,4.384418993435817
2022-03-29,4.384418993435817
2022-03-30,4.384418993435817
2022-03-31,4.384418993435817
2022-04-01,4.384418993435817
2022-04-04,4.384418993435817
2022-04-05,4.384418993435817
2022-04-06,4.384418993435817
2022-04-07,4.384418993435817
2022-04-08,4.384418993435817
2022-04-11,4.384418993435817
2022-04-12,4.384418993435817
2022-04-13,4.384418993435817
2022-04-14,4.384418993435817
2022-04-18,4.384418993435817
2022-04-19,4.384418993435817
2022-04-20,4.384418993435817
2022-04-21,4.384418993435817
2022-04-22,4.384418993435817
2022-04-25,4.384418993435817
2022-04-26,4.384418993435817
2022-04-27,4.384418993435817
2022-04-28,4.384418993435817
2022-04-29,4.384418993435817
2022-05-02,4.384418993435817
2022-05-03,4.384418993435817
2022-05-04,4.384418993435817
2022-05-05,4.384418993435817
2022-05-06,4.384418993435817
2022-05-09,4.384418993435817
2022-05-10,4.384418993435817
2022-05-11,4.384418993435817
2022-05-12,4.384418993435817
2022-05-13,4.384418993435817
2022-05-16,4.384418993435817
2022-05-17,4.384418993435817
2022-05-18,4.384418993435817
2022-05-19,4.384418993435817
2022-05-20,4.384418993435817
2022-05-23,4.384418993435817
2022-05-24,4.384418993435817
2022-05-25,4.384418993435817
2022-05-26,4.384418993435817
2022-05-27,4.384418993435817
2022-05-31,4.384418993435817
2022-06-01,4.384418993435817
2022-06-02,4.384418993435817
2022-06-03,4.384418993435817
2022-06-06,4.384418993435817
2022-06-07,4.384418993435817
2022-06-08,4.384418993435817
2022-06-09,4.384418993435817
2022-06-10,4.384418993435817
2022-06-13,4.384418993435817
2022-06-14,4.384418993435817
2022-06-15,4.384418993435817
2022-06-16,4.384418993435817
2022-06-17,4.384418993435817
2022-06-21,4.384418993435817
2022-06-22,4.384418993435817
2022-06-23,4.384418993435817
2022-06-24,4.384418993435817
2022-06-27,4.384418993435817
2022-06-28,4.384418993435817
2022-06-29,4.384418993435817
2022-06-30,4.384418993435817
2022-07-01,4.384418993435817
2022-07-05,4.384418993435817
2022-07-06,4.384418993435817
2022-07-07,4.384418993435817
2022-07-08,4.384418993435817
2022-07-11,4.384418993435817
2022-07-12,4.384418993435817
2022-07-13,4.384418993435817
2022-07-14,4.384418993435817
2022-07-15,4.384418993435817
2022-07-18,4.384418993435817
2022-07-19,4.384418993435817
2022-07-20,4.384418993435817
2022-07-21,4.384418993435817
2022-07-22,4.384418993435817
2022-07-25,4.384418993435817
2022-07-26,4.384418993435817
2022-07-27,4.384418993435817
2022-07-28,4.384418993435817
2022-07-29,4.384418993435817
2022-08-01,4.384418993435817
2022-08-02,4.384418993435817
2022-08-03,4.384418993435817
2022-08-04,4.384418993435817
2022-08-05,4.384418993435817
2022-08-08,4.384418993435817
2022-08-09,4.384418993435817
2022-08-10,4.384418993435817
2022-08-11,4.384418993435817
2022-08-12,4.384418993435817
2022-08-15,4.384418993435817
2022-08-16,4.384418993435817
2022-08-17,4.384418993435817
2022-08-18,4.384418993435817
2022-08-19,4.384418993435817
2022-08-22,4.384418993435817
2022-08-23,4.384418993435817
2022-08-24,4.384418993435817
2022-08-25,4.384418993435817
2022-08-26,4.384418993435817
2022-08-29,4.384418993435817
2022-08-30,4.384418993435817
2022-08-31,4.384418993435817
2022-09-01,4.384418993435817
2022-09-02,4.384418993435817
2022-09-06,4.384418993435817
2022-09-07,4.384418993435817
2022-09-08,4.384418993435817
2022-09-09,4.384418993435817
2022-09-12,4.384418993435817
2022-09-13,4.384418993435817
2022-09-14,4.384418993435817
2022-09-15,4.384418993435817
2022-09-16,4.384418993435817
2022-09-19,4.384418993435817
2022-09-20,4.384418993435817
2022-09-21,4.384418993435817
2022-09-22,4.384418993435817
2022-09-23,4.384418993435817
2022-09-26,4.384418993435817
2022-09-27,4.384418993435817
2022-09-28,4.384418993435817
2022-09-29,4.384418993435817
2022-09-30,4.384418993435817
2022-10-03,4.384418993435817
2022-10-04,4.384418993435817
2022-10-05,4.384418993435817
2022-10-06,4.384418993435817
2022-10-07,4.384418993435817
2022-10-10,4.384418993435817
2022-10-11,4.384418993435817
2022-10-12,4.384418993435817
2022-10-13,4.384418993435817
2022-10-14,4.384418993435817
2022-10-17,4.384418993435817
2022-10-18,4.384418993435817
2022-10-19,4.384418993435817
2022-10-20,4.384418993435817
2022-10-21,4.384418993435817
2022-10-24,4.384418993435817
2022-10-25,4.384418993435817
2022-10-26,4.384418993435817
2022-10-27,4.384418993435817
2022-10-28,4.384418993435817
2022-10-31,4.384418993435817
2022-11-01,4.384418993435817
2022-11-02,4.384418993435817
2022-11-03,4.384418993435817
2022-11-04,4.384418993435817
2022-11-07,4.384418993435817
2022-11-08,4.384418993435817
2022-11-09,4.384418993435817
2022-11-10,4.384418993435817
2022-11-11,4.384418993435817
2022-11-14,4.384418993435817
2022-11-15,4.384418993435817
2022-11-16,4.384418993435817
2022-11-17,4.384418993435817
2022-11-18,4.384418993435817
2022-11-21,4.384418993435817
2022-11-22,4.384418993435817
2022-11-23,4.384418993435817
2022-11-25,4.384418993435817
2022-11-28,4.384418993435817
2022-11-29,4.384418993435817
2022-11-30,4.384418993435817
2022-12-01,4.384418993435817
2022-12-02,4.384418993435817
2022-12-05,4.384418993435817
2022-12-06,4.384418993435817
2022-12-07,4.384418993435817
2022-12-08,4.384418993435817
2022-12-09,4.384418993435817
2022-12-12,4.384418993435817
2022-12-13,4.384418993435817
2022-12-14,4.384418993435817
2022-12-15,4.384418993435817
2022-12-16,4.384418993435817
2022-12-19,4.384418993435817
2022-12-20,4.384418993435817
2022-12-21,4.384418993435817
2022-12-22,4.384418993435817
2022-12-23,4.384418993435817
2022-12-27,4.384418993435817
2022-12-28,4.384418993435817
2022-12-29,4.384418993435817
2022-12-30,4.384418993435817
2023-01-03,4.384418993435817
2023-01-04,4.384418993435817
2023-01-05,4.384418993435817
2023-01-06,4.384418993435817
2023-01-09,4.384418993435817
2023-01-10,4.384418993435817
2023-01-11,4.384418993435817
2023-01-12,4.384418993435817
2023-01-13,4.384418993435817
2023-01-17,4.384418993435817
2023-01-18,4.384418993435817
2023-01-19,4.384418993435817
2023-01-20,4.384418993435817
2023-01-23,4.384418993435817
2023-01-24,4.384418993435817
2023-01-25,4.384418993435817
2023-01-26,4.384418993435817
2023-01-27,4.384418993435817
2023-01-30,4.384418993435817
2023-01-31,4.384418993435817
2023-02-01,4.384418993435817
2023-02-02,4.384418993435817
2023-02-03,4.384418993435817
2023-02-06,4.408713459738686
2023-02-07,4.588272887993724
2023-02-08,4.495390700674124
2023-02-09,4.444542380410897
2023-02-10,4.287283876330558
2023-02-13,4.404443374068854
2023-02-14,4.52967709109914
2023-02-15,4.480600688282339
2023-02-16,4.344840990233118
2023-02-17,4.285317951787949
2023-02-21,4.1986839605236455
2023-02-22,4.197832548875159
2023-02-23,4.502768212110347
2023-02-24,4.462940902770217
2023-02-27,4.470266437388742
2023-02-28,4.475608580005284
2023-03-01,4.4110739469782665
2023-03-02,4.4832489375368505
2023-03-03,4.614156954278457
2023-03-06,4.576462093158744
2023-03-07,4.546297775278449
2023-03-08,4.643417065948718
2023-03-09,4.543421992742649
2023-03-10,4.479507776860846
2023-03-13,4.48871771180098
2023-03-14,4.690261156490649
2023-03-15,4.732081410935404
2023-03-16,4.917478516802044
2023-03-17,4.875821409321373
2023-03-20,4.90867374913018
2023-03-21,4.968676563574173
2023-03-22,4.981630668639285
2023-03-23,5.087101648863428
2023-03-24,5.05501632611184
2023-03-27,5.00811731055836
2023-03-28,4.981217612332508
2023-03-29,5.0722959334808415
2023-03-30,5.1306537729660215
2023-03-31,5.199030424428592
2023-04-03,5.226244015598449
2023-04-04,5.183096247185944
2023-04-05,5.101594680251093
2023-04-06,5.1482964795805986
2023-04-10,5.196571061191718
2023-04-11,5.147469280308906
2023-04-12,5.077423540632954
2023-04-13,5.115645398245682
2023-04-14,5.1542004202939715
2023-04-17,5.162686758157699
2023-04-18,5.2264120723234155
2023-04-19,5.239887715746879
2023-04-20,5.135509892916126
2023-04-21,5.135911074440747
2023-04-24,5.127141978128381
2023-04-25,5.008407765055681
2023-04-26,5.09587378914837
2023-04-27,5.315331537593742
2023-04-28,5.381975048957008
2023-05-01,5.523057319158126
2023-05-02,5.42348148516219
2023-05-03,5.3660101338015895
2023-05-04,5.317726757418563
2023-05-05,5.430696880553267
2023-05-08,5.48354108463162
2023-05-09,5.423074697668065
2023-05-10,5.454265426294159
2023-05-11,5.43966410774276
2023-05-12,5.401613153654622
2023-05-15,5.499291258427459
2023-05-16,5.526428961022516
2023-05-17,5.652161922117604
2023-05-18,5.8387938251812805
2023-05-19,5.7872401078047435
2023-05-22,5.795521257799612
2023-05-23,5.733745127853104
2023-05-24,5.734116898541844
2023-05-25,6.541166064744444
2023-05-26,6.704209233350668
2023-05-30,6.830123289027076
2023-05-31,6.604578834601366
2023-06-01,6.86027986246919
2023-06-02,6.813595987200231
2023-06-05,6.789164761819604
2023-06-06,6.732913739991802
2023-06-07,6.55981864755141
2023-06-08,6.675320342464031
2023-06-09,6.7051470978905225
2023-06-12,6.820142076323314
2023-06-13,6.98421592745975
2023-06-14,7.205664794891467
2023-06-15,7.224955393656632
2023-06-16,7.223628125538074
2023-06-20,7.36305978257196
2023-06-21,7.265024759862891
2023-06-22,7.2841401675978235
2023-06-23,7.223357181377033
2023-06-26,6.989947168558558
2023-06-27,7.177256350979562
2023-06-28,7.0857349046424245
2023-06-29,7.030015651736703
2023-06-30,7.2216958300066185
2023-07-03,7.2271054216209
2023-07-05,7.271683350075172
2023-07-06,7.233539242068942
2023-07-07,7.266132241355268
2023-07-10,7.2554757027322125
2023-07-11,7.306634827740888
2023-07-12,7.536786876557441
2023-07-13,7.782138072237725
2023-07-14,7.698859747900666
2023-07-17,7.814871163856323
2023-07-18,7.9331104670466654
2023-07-19,7.915100063311577
2023-07-20,7.66264092367833
2023-07-21,7.480905157095091
2023-07-24,7.490895561068559
2023-07-25,7.6033503237848565
2023-07-26,7.5794261755465975
2023-07-27,7.626642369149212
2023-07-28,7.716225951941067
2023-07-31,7.673401590813924
2023-08-01,7.710671501885339
2023-08-02,7.325422486911621
2023-08-03,7.364664505650853
2023-08-04,7.522528749821819
2023-08-07,7.726697745046099
2023-08-08,7.598320862144331
2023-08-09,7.012816852591776
2023-08-10,7.012816852591776
2023-08-11,7.012816852591776
2023-08-14,7.093261452687427
2023-08-15,7.069280762101236
2023-08-16,7.039945712935506
2023-08-17,6.938155733520517
2023-08-18,6.927492046473052
2023-08-21,6.959581264378981
2023-08-22,6.993032715192326
2023-08-23,7.03850831868875
2023-08-24,6.959247181692202
2023-08-25,6.979666108917812
2023-08-28,7.014735337430045
2023-08-29,7.082701574648828
2023-08-30,7.139167316632699
2023-08-31,7.129222000872822
2023-09-01,7.132874442835994
2023-09-05,7.06654994399954
2023-09-06,6.985885685494686
2023-09-07,6.997299774970479
2023-09-08,6.9808634582589075
2023-09-11,6.981512880136818
2023-09-12,6.928588976635757
2023-09-13,6.862225338166343
2023-09-14,6.9798441965528415
2023-09-15,6.9294085755810935
2023-09-18,6.96423611223968
2023-09-19,6.735070899715021
2023-09-20,6.698857906478316
2023-09-21,6.698857906478316
2023-09-22,6.698857906478316
2023-09-25,6.674119847927153
2023-09-26,6.693558756403445
2023-09-27,6.719664031446017
2023-09-28,6.754042116051425
2023-09-29,6.763180490144837
2023-10-02,6.770187365186641
2023-10-03,6.659326790285164
2023-10-04,6.707952423910202
2023-10-05,6.718525226209895
2023-10-06,6.851409360597897
2023-10-09,6.929951529605621
2023-10-10,6.949135223058446
2023-10-11,7.071645857225816
2023-10-12,7.073832507752091
2023-10-13,7.048915154291938
2023-10-16,7.0864881692868025
2023-10-17,7.065607030346034
2023-10-18,7.067072298888588
2023-10-19,7.014593225523792
2023-10-20,6.943806266795418
2023-10-23,6.911123335839793
2023-10-24,6.968965180238733
2023-10-25,6.8672163773335475
2023-10-26,6.799655175461459
2023-10-27,6.792848011816291
2023-10-30,6.809255871792567
2023-10-31,6.81335769147724
2023-11-01,6.828713863431474
2023-11-02,6.835550270879943
2023-11-03,6.826505076903994
2023-11-06,6.7890937358424095
2023-11-07,6.897950611229635
2023-11-08,6.910295306446239
2023-11-09,6.85086346085315
2023-11-10,6.974955163915115
2023-11-13,7.074592040882689
2023-11-14,7.200855610536763
2023-11-15,7.156808966668721
2023-11-16,7.083795925753476
2023-11-17,7.134716512879081
2023-11-20,7.259723543011449
2023-11-21,7.029086330537705
2023-11-22,7.022376232123609
2023-11-24,6.960769891569283
2023-11-27,6.930385674234819
2023-11-28,7.07514068322427
2023-11-29,7.495394574791257
2023-11-30,7.57596822627781
2023-12-01,7.576749207810794
2023-12-04,7.378897954902788
2023-12-05,7.407428042587476
2023-12-06,7.415553635949999
2023-12-07,7.429096383396837
2023-12-08,7.472072123463734
2023-12-11,7.598623560563111
2023-12-12,7.640220720950078
2023-12-13,7.665546293479924
2023-12-14,7.703739205201671
2023-12-15,7.805196062712745
2023-12-18,7.793606589357019
2023-12-19,7.7866631996550275
2023-12-20,7.635202925979673
2023-12-21,7.735256026538531
2023-12-22,7.717304047957718
2023-12-26,7.771321107931075
2023-12-27,7.826724768584989
2023-12-28,7.798200870966024
2023-12-29,7.7046703955119735
2024-01-02,7.404302902997269
2024-01-03,7.311236948019895
2024-01-04,7.311236948019895
2024-01-05,7.311236948019895
2024-01-08,7.598940582032823
2024-01-09,7.860414969991977
2024-01-10,7.961678860244959
2024-01-11,7.984125887398827
2024-01-12,7.929121608617276
2024-01-16,8.289010754149238
2024-01-17,8.180841981342608
2024-01-18,8.345216722357328
2024-01-19,8.754117949562303
2024-01-22,8.714386953252252
2024-01-23,8.70046565248564
2024-01-24,9.001207423498911
2024-01-25,8.955365421546698
2024-01-26,8.829434757236896
2024-01-29,8.99488709871657
2024-01-30,8.85447788837389
2024-01-31,8.612230266941944
2024-02-01,8.784593111530361
2024-02-02,9.032544804607612
2024-02-05,8.92753825478866
2024-02-06,8.756640655628935
2024-02-07,9.063743114837022
2024-02-08,9.098666531618926
2024-02-09,9.271612391116488
2024-02-12,9.13994429696806
2024-02-13,9.146996449286945
2024-02-14,9.509218106592897
2024-02-15,9.412688173210945
2024-02-16,9.3063630466538
2024-02-20,9.013066155614718
2024-02-21,8.627966575011365
2024-02-22,9.085570187747223
2024-02-23,8.946492179916987
2024-02-26,8.900031921456728
2024-02-27,8.930524070088332
2024-02-28,8.835857056109779
2024-02-29,9.331380071904
2024-03-01,9.767508817888572
2024-03-04,9.99976340479971
2024-03-05,10.033664385549862
2024-03-06,10.326216297425367
2024-03-07,10.562341313016603
2024-03-08,10.177873998770188
2024-03-11,9.847755080434265
2024-03-12,10.296581686581682
2024-03-13,10.018941665363283
2024-03-14,9.85828489753763
2024-03-15,9.85244530242647
2024-03-18,10.230980868752125
2024-03-19,10.242474414766553
2024-03-20,10.521320561349293
2024-03-21,10.688257872628874
2024-03-22,10.790714324657658
2024-03-25,10.936984517649556
2024-03-26,10.68544503897101
2024-03-27,10.384575254705203
2024-03-28,10.418571644584587
2024-04-01,10.41268422892003
2024-04-02,10.408422570566769
2024-04-03,10.62786094383099
2024-04-04,10.454658588799788
2024-04-05,10.72732905832115
2024-04-08,10.934660255696828
2024-04-09,10.78104911267226
2024-04-10,10.766943221117986
2024-04-11,10.915838610216518
2024-04-12,10.706601717065297
2024-04-15,10.333677324612069
2024-04-16,10.41200525167944
2024-04-17,10.184007436999334
2024-04-18,9.929736433365523
2024-04-19,9.829462499821389
2024-04-22,9.891392127650246
2024-04-23,9.953953188527596
2024-04-24,9.986394470662447
2024-04-25,9.886933327546584
2024-04-26,10.388860780023686
2024-04-29,10.205295744612318
2024-04-30,10.100279975818193
2024-05-01,10.13212785011704
2024-05-02,10.221601968935104
2024-05-03,10.239822745502618
2024-05-06,10.266749994634301
2024-05-07,10.366529640972031
2024-05-08,10.308082960131323
2024-05-09,10.323934872880697
2024-05-10,10.282754185900362
2024-05-13,10.300165479817199
2024-05-14,10.335498715106056
2024-05-15,10.40077127358234
2024-05-16,10.451780699844495
2024-05-17,10.51101593600417
2024-05-20,10.543141185819927
2024-05-21,10.574962653268667
2024-05-22,10.527295761525824
2024-05-23,10.43591958541759
2024-05-24,10.478855770326298
2024-05-28,10.527929277397948
2024-05-29,10.51020073688159
2024-05-30,10.389360963813019
2024-05-31,10.4018720833044
2024-06-03,10.41978753353816
2024-06-04,10.440844420065853
2024-06-05,10.497199902632714
2024-06-06,10.538382575876843
2024-06-07,10.46442990129561
2024-06-10,10.490263915001023
2024-06-11,10.540532608985615
2024-06-12,10.580790111551654
2024-06-13,10.494390391720028
2024-06-14,10.546081359556274
2024-06-17,10.559721333002262
2024-06-18,10.488700864748314
2024-06-20,10.527861098554792
2024-06-21,10.62116386289452
2024-06-24,10.622984553562981
2024-06-25,10.775206167861686
2024-06-26,10.769503160559516
2024-06-27,10.817392611743946
2024-06-28,10.711171173638457
2024-07-01,10.741436689637275
2024-07-02,10.810739363585038
2024-07-03,10.832286386972187
2024-07-05,10.98056047101911
2024-07-08,10.932190788733127
2024-07-09,10.930763035363075
2024-07-10,11.000845731470875
2024-07-11,10.826881908740177
2024-07-12,10.810709929338365
2024-07-15,10.856221873617969
2024-07-16,10.772190682552186
2024-07-17,10.674976148540722
2024-07-18,10.674976148540722
2024-07-19,10.674976148540722
2024-07-22,10.711394100997214
2024-07-23,10.687620164053781
2024-07-24,10.13978827655177
2024-07-25,10.077059457304854
2024-07-26,10.077059457304854
2024-07-29,10.021343563372108
2024-07-30,9.96224875617049
2024-07-31,10.003674114809714
2024-08-01,9.952706559862735
2024-08-02,9.774068882952612
2024-08-05,9.642842931167252
2024-08-06,9.650649344770006
2024-08-07,9.55124090324746
2024-08-08,9.601727063971047
2024-08-09,9.540445235879162
2024-08-12,9.452944150897016
2024-08-13,9.564008637446854
2024-08-14,9.617182093369856
2024-08-15,9.640877182612744
2024-08-16,9.690899232523758
2024-08-19,9.745286487208926
2024-08-20,9.740620845904076
2024-08-21,9.770031528802505
2024-08-22,9.745599946244361
2024-08-23,9.760598867539954
2024-08-26,9.694897428300337
2024-08-27,9.695379185060219
2024-08-28,9.707069446785734
2024-08-29,9.785787160279554
2024-08-30,9.809342387008297
2024-09-03,9.75509335417603
2024-09-04,9.652476963849747
2024-09-05,9.641045822389334
2024-09-06,9.639458539127565
2024-09-09,9.685147645536789
2024-09-10,9.799008828714788
2024-09-11,9.827383251815398
2024-09-12,9.885023652461761
2024-09-13,9.85516946323149
2024-09-16,9.866046532798196
2024-09-17,9.834864518938556
2024-09-18,9.804855353527962
2024-09-19,9.837087599236712
2024-09-20,9.792331713081824
2024-09-23,9.802699326715604
2024-09-24,9.800033839176606
2024-09-25,9.735270043149855
2024-09-26,9.689367469067793
2024-09-27,9.70763562861832
2024-09-30,9.830551870137871
2024-10-01,9.837557513304949
2024-10-02,9.890183415625177
2024-10-03,10.019767506796168
2024-10-04,10.20084546010232
2024-10-07,10.206739738927917
2024-10-08,10.367047533669641
2024-10-09,10.39267218634766
2024-10-10,10.400292315795404
2024-10-11,10.491363880466244
2024-10-14,10.429955190608263
2024-10-15,10.398000226891075
2024-10-16,10.4673350989396
2024-10-17,10.416569210625143
2024-10-18,10.480436256952148
2024-10-21,10.984709578163349
2024-10-22,11.048441671363689
2024-10-23,11.035739977534488
2024-10-24,11.070212432671815
2024-10-25,11.177225747672262
2024-10-28,11.34266184987681
2024-10-29,11.551009311262185
2024-10-30,11.53531440529682
2024-10-31,11.466401966110771
2024-11-01,11.265786317453875
2024-11-04,11.108365876751572
2024-11-05,11.351254851645752
2024-11-06,11.526455686284601
2024-11-07,14.689373095095867
2024-11-08,16.29935139400123
2024-11-11,16.178023398983818
2024-11-12,16.190953899009955
2024-11-13,15.92061207420356
2024-11-14,15.940756459754288
2024-11-15,16.191611882030458
2024-11-18,16.165161794199783
2024-11-19,17.182431475036637
2024-11-20,17.267677293452344
2024-11-21,16.942349433862034
2024-11-22,17.751303098145506
2024-11-25,17.253524303363434
2024-11-26,17.72654338267573
2024-11-27,17.705039596472513
2024-11-29,18.09768345119184
2024-12-02,18.189135029079388
2024-12-03,19.536796860064097
2024-12-04,19.720883293205922
2024-12-05,20.084539662397994
2024-12-06,21.290132959418635
2024-12-09,18.739681487078624
2024-12-10,18.61567380791286
2024-12-11,18.743631018037217
2024-12-12,18.79813080906015
2024-12-13,19.024820267011197
2024-12-16,19.470497123533487
2024-12-17,19.724719684338346
2024-12-18,18.644029153971353
2024-12-19,18.772248723336546
2024-12-20,18.91330823390802
2024-12-23,19.01758657337014
2024-12-24,19.33499351451553
2024-12-26,19.295881318261777
2024-12-27,18.878661587340794
2024-12-30,18.56398436163024
2024-12-31,18.339936825664125
2025-01-02,18.56636874136586
2025-01-03,19.325599585751124
2025-01-06,19.081731601828494
2025-01-07,18.379875127505464
2025-01-08,18.511785169339177
2025-01-10,18.18828889953479
2025-01-13,18.36640374688098
2025-01-14,18.358540312579443
2025-01-15,18.493238450093042
2025-01-16,18.654831136910953
2025-01-17,19.422326086424693
2025-01-21,19.398666229119318
2025-01-22,19.531090679617044
2025-01-23,19.589630256927
2025-01-24,19.508598119269948
2025-01-27,17.986700702990184
2025-01-28,17.986700702990184
2025-01-29,17.986700702990184
2025-01-30,17.986700702990184
2025-01-31,17.986700702990184
2025-02-03,18.34132754480141
2025-02-04,19.657305316276457
2025-02-05,19.366172984135094
2025-02-06,20.080111107174567
2025-02-07,19.993523533687785
2025-02-10,20.42943425158539
2025-02-11,20.086879050216154
2025-02-12,20.419065736812065
2025-02-13,21.610228041827593
2025-02-14,22.16959310201223
2025-02-18,22.29627757586824
2025-02-19,21.56812307848494
2025-02-20,20.24215403798996
2025-02-21,20.24215403798996
2025-02-24,20.183458916391437
2025-02-25,20.085041840218754
2025-02-26,20.10007258484419
2025-02-27,20.020175469607487
2025-02-28,20.04535123384184
2025-03-03,20.09569891638619
2025-03-04,19.89309876255929
2025-03-05,19.864279179766548
2025-03-06,19.891989937883164
2025-03-07,19.955264493033695
2025-03-10,19.936328309286516
2025-03-11,19.936328309286516
2025-03-12,19.936328309286516
2025-03-13,19.936328309286516
2025-03-14,19.936328309286516
2025-03-17,19.936328309286516
2025-03-18,19.936328309286516
2025-03-19,19.936328309286516
2025-03-20,19.936328309286516
2025-03-21,19.936328309286516
2025-03-24,19.936328309286516
2025-03-25,19.936328309286516
2025-03-26,19.936328309286516
2025-03-27,19.936328309286516
2025-03-28,19.936328309286516
2025-03-31,19.936328309286516
2025-04-01,19.936328309286516
2025-04-02,19.936328309286516
2025-04-03,19.936328309286516
2025-04-04,19.936328309286516
2025-04-07,19.936328309286516
2025-04-08,19.936328309286516
2025-04-09,19.936328309286516
2025-04-10,19.936328309286516
2025-04-11,19.936328309286516
2025-04-14,19.936328309286516
2025-04-15,19.936328309286516
2025-04-16,19.936328309286516
2025-04-17,19.936328309286516
2025-04-21,19.936328309286516
2025-04-22,19.936328309286516
2025-04-23,19.936328309286516
2025-04-24,19.936328309286516
2025-04-25,19.936328309286516
2025-04-28,19.936328309286516
2025-04-29,19.936328309286516
2025-04-30,19.936328309286516
2025-05-01,19.936328309286516
2025-05-02,19.936328309286516
2025-05-05,19.936328309286516
2025-05-06,19.936328309286516
2025-05-07,19.936328309286516
2025-05-08,19.936328309286516
2025-05-09,19.936328309286516
2025-05-12,19.936328309286516
2025-05-13,19.936328309286516
2025-05-14,19.936328309286516
2025-05-15,19.936328309286516
2025-05-16,19.936328309286516
2025-05-19,20.080241243332686
2025-05-20,20.024423681576522
2025-05-21,19.71211051491717
2025-05-22,19.86442899199465
2025-05-23,19.565816520522766
2025-05-27,19.755503807055327
2025-05-28,19.767808905198564
2025-05-29,19.632502076052198
2025-05-30,20.457535809615905
2025-06-02,20.59505253630786
2025-06-03,20.719521070407502
2025-06-04,20.35737607748503
2025-06-05,19.58023168334509
2025-06-06,19.64189509052177
2025-06-09,19.5738219387325
2025-06-10,19.634002217647414
2025-06-11,19.915911294488648
2025-06-12,19.752993692616563
2025-06-13,19.551350635817002
2025-06-16,20.01739033079621
2025-06-17,19.520311418053083
2025-06-18,19.48818295559454
2025-06-20,19.27557537884394
2025-06-23,19.704558607102246
2025-06-24,19.914225244645145
2025-06-25,19.984461854790656
2025-06-26,20.14368969242561
2025-06-27,19.104215578123043
2025-06-30,19.512334903858523
2025-07-01,18.87984546413928
2025-07-02,19.050108588189737
2025-07-03,19.37845674395393
2025-07-07,19.777575823455702
2025-07-08,19.742119231565766
2025-07-09,20.126904759574714
2025-07-10,19.518833282824716
2025-07-11,19.365109571455044
2025-07-14,19.92266518684785
2025-07-15,20.075329727939312
2025-07-16,20.48281539384174
2025-07-17,20.988984102137874
2025-07-18,20.836254106271063
2025-07-21,20.631322750724646
2025-07-22,20.224423574173706
2025-07-23,20.80108507397008
2025-07-24,20.85192329077715
2025-07-25,21.246754811466836
2025-07-28,21.263607936007414
2025-07-29,21.211745859775533
2025-07-30,21.422811115113742
2025-07-31,21.512657554633265
2025-08-01,20.860254877082184
2025-08-04,21.654016371968538
2025-08-05,22.77148341572361
2025-08-06,23.29915020207749
2025-08-07,23.266074686318284
2025-08-08,23.66956393336465
2025-08-11,23.419254658947295
2025-08-12,23.80332500392979
2025-08-13,23.25769702274458
2025-08-14,23.017161713675023
2025-08-15,22.825301825807475
2025-08-18,22.60190001573971
2025-08-19,21.674562380017314
2025-08-20,21.674562380017314
2025-08-21,21.674562380017314
2025-08-22,21.674562380017314
2025-08-25,21.913110265651678
2025-08-26,22.396789585793286
2025-08-27,22.16559300966808
2025-08-28,22.8048419073066
2025-08-29,22.65781794489996
2025-09-02,22.56263142996942
2025-09-03,22.79181531714824
2025-09-04,23.482029362331843
2025-09-05,23.371126148881853
2025-09-08,24.72296868664879
2025-09-09,24.782865339614094
2025-09-10,24.907679307196602
2025-09-11,25.22871024210452
2025-09-12,25.364783549666214
2025-09-15,25.9862317785584
2025-09-16,26.19625282603893
2025-09-17,26.31746370780934
2025-09-18,27.00968632353875
2025-09-19,27.79221095988685
2025-09-22,27.93644133795512
2025-09-23,27.57263657440889
2025-09-24,27.259249869310203
2025-09-25,26.800673433025352
2025-09-26,27.53784516350563
2025-09-29,28.571109980485375
2025-09-30,28.425515168843383
2025-10-01,28.83492327713324
2025-10-02,28.766933157837393
2025-10-03,28.59482082344403
2025-10-06,27.702051037369273
2025-10-07,27.887716114705327
2025-10-08,27.970946255790878
2025-10-09,28.089387833805354
2025-10-10,27.63162572124078
2025-10-13,27.666365321122385
2025-10-14,27.26224931251647
2025-10-15,29.036706561945657
2025-10-16,28.68378677359773
2025-10-17,28.645272087206394
2025-10-20,29.46388694621569
2025-10-21,29.31142316408755
2025-10-22,28.437501429474885
2025-10-23,29.133337713148123
2025-10-24,30.29762886415255
2025-10-27,31.124825960495013
2025-10-28,31.65761414025925
2025-10-29,31.99364331021848
2025-10-30,31.02000463544535
2025-10-31,31.04596091494725
2025-11-03,31.110764049260474
2025-11-04,29.717271660626203
2025-11-05,30.543764303094385
2025-11-06,29.00900253931138
2025-11-07,28.887946471671604
2025-11-10,29.30420148273806
2025-11-11,28.40535965413179
2025-11-12,28.63128962824005
2025-11-13,27.63750095174383
2025-11-14,28.218125533641093
2025-11-17,27.725201965234344
2025-11-18,26.89968159832008
2025-11-19,26.28114369659501
2025-11-20,26.11776694477296
2025-11-21,26.11776694477296
2025-11-24,26.294759182089628
2025-11-25,26.619289247935342
2025-11-26,26.5227359009227
2025-11-28,26.489540650228683
2025-12-01,26.119771777464756
2025-12-02,26.069315806790414
2025-12-03,25.991807207785435
2025-12-04,25.942140483525225
2025-12-05,25.980545728101866
2025-12-08,25.747738305869053
2025-12-09,25.81829746019305
2025-12-10,25.884027485505946
2025-12-11,25.72064772583093
2025-12-12,25.654708630656465
2025-12-15,25.579561548755514
2025-12-16,25.48565075832148
2025-12-17,25.122313325119304
2025-12-18,25.24985854261131
2025-12-19,25.32082537734235
2025-12-22,25.358493211394418
2025-12-23,25.37353609321248
2025-12-24,25.865427307743943
2025-12-26,25.805871012997947
2025-12-29,26.27970871672136
2025-12-30,26.12458739464911
2025-12-31,25.719926012719384
2026-01-02,27.389559294326432
2026-01-05,27.615981185389558
2026-01-06,29.339376590400995
2026-01-07,29.068052275158152
2026-01-08,28.23437106743873
2026-01-09,29.541789350775204
2026-01-12,29.725441649021015
2026-01-13,29.31174443326268
2026-01-14,29.019278778704944
2026-01-15,29.58931500281843
2026-01-16,30.983750639130356
2026-01-20,30.87308917358434
2026-01-21,32.152662363749776
2026-01-22,32.38482965106773
2026-01-23,32.56756343869124
2026-01-26,32.010784603474285
2026-01-27,33.30642934046987
2026-01-28,34.55633814280731
2026-01-29,34.69172697910947
2026-01-30,33.26640185895163
2026-02-02,34.46857759576648
2026-02-03,33.38706625124509
2026-02-04,30.883563337736778
2026-02-05,30.883563337736778
2026-02-06,30.883563337736778
2026-02-09,30.949656741554442
2026-02-10,30.651756240721713
2026-02-11,31.69089800231868
2026-02-12,31.635393545030073
2026-02-13,31.731492090847937
2026-02-17,31.49223554572152
2026-02-18,32.07364252875672
2026-02-19,31.90960123766636
2026-02-20,32.382912768557375
2026-02-23,32.14754532735246
2026-02-24,32.1542665133439
2026-02-25,32.55348275288448
2026-02-26,31.929937764686986
2026-02-27,31.690600418904474
2026-03-02,31.599251401213937
2026-03-03,30.552318465400422
2026-03-04,30.980050662020233
2026-03-05,30.90460467802933
2026-03-06,30.362079662893585
2026-03-09,30.89725906067813
2026-03-10,30.86811801366695
2026-03-11,31.081375398230826
2026-03-12,30.2294533187989
2026-03-13,30.070304056002378
2026-03-16,29.79130434427467
2026-03-17,30.08795034398875
2026-03-18,29.49992594588796
2026-03-19,29.205612133192048
2026-03-20,28.845390223896544
2026-03-23,28.900173498405938
2026-03-24,28.900173498405938
2026-03-25,28.900173498405938
2026-03-26,28.900173498405938
2026-03-27,28.900173498405938
2026-03-30,28.900173498405938
2026-03-31,28.900173498405938
2026-04-01,28.900173498405938
2026-04-02,28.900173498405938
2026-04-06,28.900173498405938
2026-04-07,28.900173498405938
2026-04-08,28.900173498405938
2026-04-09,28.900173498405938
2026-04-10,28.900173498405938
2026-04-13,29.74521701709938
2026-04-14,29.708126973085868
2026-04-15,30.056338516580425
2026-04-16,30.74689789804922
2026-04-17,31.449557382798165
2026-04-20,31.70497893154161
2026-04-21,32.22091454940084
2026-04-22,32.65903985886641
2026-04-23,33.92607462242645
2026-04-24,37.44958569116061
2026-04-27,37.34074548004201
2026-04-28,36.67784285334259
2026-04-29,39.426548970880255
2026-04-30,40.31772847924331
2026-05-01,41.48998356476551
2026-05-04,40.454178647752705
2026-05-05,43.89476545547176
2026-05-06,45.40219887214876
2026-05-07,43.264665556122715
2026-05-08,47.945394778216595
2026-05-11,49.07474110070183
2026-05-12,46.31784424804886
2026-05-13,47.738852064164846
2026-05-14,47.2403908868147
2026-05-15,44.963607428827544
2026-05-18,43.62778840465012
2026-05-19,44.07620031941421
2026-05-20,47.02320411994462
