Date,Value
2018-01-02,1.0
2018-01-03,1.0
2018-01-04,1.0
2018-01-05,1.0
2018-01-08,1.0243276923826676
2018-01-09,1.02299762261486
2018-01-10,1.0227147207082186
2018-01-11,1.0309464810812712
2018-01-12,1.0410748266118746
2018-01-16,1.0380035739363198
2018-01-17,1.0676604080994627
2018-01-18,1.0571724725884115
2018-01-19,1.0643339386170692
2018-01-22,1.0869617927762811
2018-01-23,1.0938499022775274
2018-01-24,1.0611633497594086
2018-01-25,1.06795963087828
2018-01-26,1.1011791665929245
2018-01-29,1.133671499441326
2018-01-30,1.1167632716236975
2018-01-31,1.101778153327118
2018-02-01,1.0791646449326557
2018-02-02,1.0678319484408245
2018-02-05,1.0341165702959223
2018-02-06,1.0341165702959223
2018-02-07,1.0341165702959223
2018-02-08,1.0341165702959223
2018-02-09,1.0341165702959223
2018-02-12,1.0498026969540069
2018-02-13,1.0461889191663438
2018-02-14,1.078227406691939
2018-02-15,1.0936767465460298
2018-02-16,1.0910017597369293
2018-02-20,1.102040446516755
2018-02-21,1.0838776700811141
2018-02-22,1.083588019835378
2018-02-23,1.0974882516284343
2018-02-26,1.1043961705832352
2018-02-27,1.1036706993207177
2018-02-28,1.1056134257122823
2018-03-01,1.1017467580923903
2018-03-02,1.1124671987439527
2018-03-05,1.1320964275613472
2018-03-06,1.1472301772561841
2018-03-07,1.1476172618473954
2018-03-08,1.1511727217957881
2018-03-09,1.169647943259883
2018-03-12,1.1571332670893333
2018-03-13,1.1456421092551228
2018-03-14,1.1534057643440176
2018-03-15,1.1553663649676413
2018-03-16,1.1522610659840788
2018-03-19,1.143810335558685
2018-03-20,1.1636368463434847
2018-03-21,1.1548120626275478
2018-03-22,1.1365020865227153
2018-03-23,1.122136774088111
2018-03-26,1.1203636605957983
2018-03-27,1.1081289784861683
2018-03-28,1.10234275386652
2018-03-29,1.10234275386652
2018-04-02,1.0878501074556994
2018-04-03,1.0987530517436617
2018-04-04,1.107490342794899
2018-04-05,1.1205342215222847
2018-04-06,1.10813686783322
2018-04-09,1.1031231093338838
2018-04-10,1.1106088936239809
2018-04-11,1.1099628373446089
2018-04-12,1.1239443219869503
2018-04-13,1.114611959497061
2018-04-16,1.1200023846332532
2018-04-17,1.1304907068641057
2018-04-18,1.1317367497354398
2018-04-19,1.1236368972373565
2018-04-20,1.1200345767672246
2018-04-23,1.11804845564951
2018-04-24,1.1183830305250912
2018-04-25,1.1169072547749197
2018-04-26,1.1306500053194644
2018-04-27,1.127045127016181
2018-04-30,1.1211883027039429
2018-05-01,1.132770701077241
2018-05-02,1.1312681155056645
2018-05-03,1.1261006937330933
2018-05-04,1.1333613725644938
2018-05-07,1.1411804189398351
2018-05-08,1.1477813272339406
2018-05-09,1.1589544813453416
2018-05-10,1.161283680764282
2018-05-11,1.154139144953148
2018-05-14,1.1519881558627891
2018-05-15,1.150010212657938
2018-05-16,1.1501038653300109
2018-05-17,1.1513829691418314
2018-05-18,1.1470076633661468
2018-05-21,1.1589850249897724
2018-05-22,1.1560528315152911
2018-05-23,1.1642474426982348
2018-05-24,1.1650426273848118
2018-05-25,1.1689570281503703
2018-05-29,1.1661083844216429
2018-05-30,1.1708258872937
2018-05-31,1.1658324211636097
2018-06-01,1.1775980690128907
2018-06-04,1.174572935705931
2018-06-05,1.1664865357025418
2018-06-06,1.1678200654803539
2018-06-07,1.155148927213393
2018-06-08,1.1506983225643814
2018-06-11,1.1675034482172362
2018-06-12,1.1736460916193168
2018-06-13,1.192530100997422
2018-06-14,1.1926201238304008
2018-06-15,1.1937148022446542
2018-06-18,1.2170968272260139
2018-06-19,1.2012279795977014
2018-06-20,1.1948048728894494
2018-06-21,1.1619336627789156
2018-06-22,1.1676011289505368
2018-06-25,1.1105934010167338
2018-06-26,1.1212921864629068
2018-06-27,1.1148341718704988
2018-06-28,1.11844348182445
2018-06-29,1.115580433889296
2018-07-02,1.101134469317329
2018-07-03,1.0832265639629295
2018-07-05,1.0888737717014036
2018-07-06,1.0959489038969286
2018-07-09,1.0996908656983981
2018-07-10,1.0953190281597336
2018-07-11,1.0882687537106683
2018-07-12,1.0941198173577755
2018-07-13,1.0718725316148783
2018-07-16,1.0854356102126297
2018-07-17,1.0764512239945199
2018-07-18,1.0757928262943548
2018-07-19,1.0711841051814601
2018-07-20,1.0642711176945088
2018-07-23,1.0548864679561305
2018-07-24,1.025069448761446
2018-07-25,1.0371756806347887
2018-07-26,1.1111332145281043
2018-07-27,1.1177857694445161
2018-07-30,1.1178059913688736
2018-07-31,1.0814501523540925
2018-08-01,1.0908908890746756
2018-08-02,1.0894269195936295
2018-08-03,1.0795511424559356
2018-08-06,1.1057744138496552
2018-08-07,1.1116911693071423
2018-08-08,1.086677605655467
2018-08-09,1.0708764375810693
2018-08-10,1.0695596421807394
2018-08-13,1.0860023445706553
2018-08-14,1.1040725694007634
2018-08-15,1.0897963608880954
2018-08-16,1.0803188709997205
2018-08-17,1.0995155702077488
2018-08-20,1.1081610068237053
2018-08-21,1.1219177318170659
2018-08-22,1.1484947941606007
2018-08-23,1.2067260845868006
2018-08-24,1.276080392061863
2018-08-27,1.3223054576152968
2018-08-28,1.322599402061165
2018-08-29,1.327883832998004
2018-08-30,1.3057595985434471
2018-08-31,1.3272426945514666
2018-09-04,1.4340903376667193
2018-09-05,1.4377469953587239
2018-09-06,1.4614971339097904
2018-09-07,1.4552937445973826
2018-09-10,1.5612048928437212
2018-09-11,1.5783046995865564
2018-09-12,1.6281527405001694
2018-09-13,1.5660745705010006
2018-09-14,1.645288026016785
2018-09-17,1.6329002586500838
2018-09-18,1.630161660369958
2018-09-19,1.6025791763395776
2018-09-20,1.5959092115492597
2018-09-21,1.5845439536236166
2018-09-24,1.6434686633519457
2018-09-25,1.6543483246234554
2018-09-26,1.6372653283951153
2018-09-27,1.629782267234916
2018-09-28,1.5819968804898097
2018-10-01,1.580802873268075
2018-10-02,1.4744485095470559
2018-10-03,1.4406997843380707
2018-10-04,1.4406997843380707
2018-10-05,1.4406997843380707
2018-10-08,1.4402218959202908
2018-10-09,1.445021081243004
2018-10-10,1.4181222629921335
2018-10-11,1.4181222629921335
2018-10-12,1.4181222629921335
2018-10-15,1.4205122221231696
2018-10-16,1.427178884563355
2018-10-17,1.4352922207380405
2018-10-18,1.4323990437668288
2018-10-19,1.4325248143020655
2018-10-22,1.4332976481902708
2018-10-23,1.4351626434493112
2018-10-24,1.4295615636546772
2018-10-25,1.4411893527830428
2018-10-26,1.434707808024867
2018-10-29,1.440643936241136
2018-10-30,1.440643936241136
2018-10-31,1.440643936241136
2018-11-01,1.440643936241136
2018-11-02,1.440643936241136
2018-11-05,1.440643936241136
2018-11-06,1.440643936241136
2018-11-07,1.440643936241136
2018-11-08,1.440643936241136
2018-11-09,1.440643936241136
2018-11-12,1.440643936241136
2018-11-13,1.440643936241136
2018-11-14,1.440643936241136
2018-11-15,1.440643936241136
2018-11-16,1.440643936241136
2018-11-19,1.440643936241136
2018-11-20,1.440643936241136
2018-11-21,1.440643936241136
2018-11-23,1.440643936241136
2018-11-26,1.440643936241136
2018-11-27,1.440643936241136
2018-11-28,1.440643936241136
2018-11-29,1.440643936241136
2018-11-30,1.440643936241136
2018-12-03,1.440643936241136
2018-12-04,1.440643936241136
2018-12-06,1.440643936241136
2018-12-07,1.440643936241136
2018-12-10,1.440643936241136
2018-12-11,1.440643936241136
2018-12-12,1.440643936241136
2018-12-13,1.440643936241136
2018-12-14,1.440643936241136
2018-12-17,1.440643936241136
2018-12-18,1.440643936241136
2018-12-19,1.440643936241136
2018-12-20,1.440643936241136
2018-12-21,1.440643936241136
2018-12-24,1.440643936241136
2018-12-26,1.440643936241136
2018-12-27,1.440643936241136
2018-12-28,1.440643936241136
2018-12-31,1.440643936241136
2019-01-02,1.440643936241136
2019-01-03,1.440643936241136
2019-01-04,1.440643936241136
2019-01-07,1.440643936241136
2019-01-08,1.440643936241136
2019-01-09,1.440643936241136
2019-01-10,1.440643936241136
2019-01-11,1.440643936241136
2019-01-14,1.440643936241136
2019-01-15,1.440643936241136
2019-01-16,1.440643936241136
2019-01-17,1.440643936241136
2019-01-18,1.440643936241136
2019-01-22,1.440643936241136
2019-01-23,1.440643936241136
2019-01-24,1.440643936241136
2019-01-25,1.440643936241136
2019-01-28,1.440643936241136
2019-01-29,1.440643936241136
2019-01-30,1.440643936241136
2019-01-31,1.440643936241136
2019-02-01,1.440643936241136
2019-02-04,1.440643936241136
2019-02-05,1.440643936241136
2019-02-06,1.440643936241136
2019-02-07,1.440643936241136
2019-02-08,1.440643936241136
2019-02-11,1.440643936241136
2019-02-12,1.440643936241136
2019-02-13,1.440643936241136
2019-02-14,1.440643936241136
2019-02-15,1.440643936241136
2019-02-19,1.4354095645582514
2019-02-20,1.4463456558037697
2019-02-21,1.4516470909117523
2019-02-22,1.475480784174017
2019-02-25,1.4892617874144143
2019-02-26,1.410716511502931
2019-02-27,1.4053021572397326
2019-02-28,1.4008835453311388
2019-03-01,1.4035107379680336
2019-03-04,1.3777798009772697
2019-03-05,1.3551666643958695
2019-03-06,1.3535800653582224
2019-03-07,1.364087916125326
2019-03-08,1.3797919665132294
2019-03-11,1.412123811639037
2019-03-12,1.4157034256108445
2019-03-13,1.42898259752526
2019-03-14,1.4536933645567796
2019-03-15,1.4565801372295955
2019-03-18,1.4867376057501902
2019-03-19,1.4980250966978559
2019-03-20,1.518743828879976
2019-03-21,1.6029306677454356
2019-03-22,1.5481097502759786
2019-03-25,1.5598914427229937
2019-03-26,1.5933689837552893
2019-03-27,1.5573930703671217
2019-03-28,1.5724557410614513
2019-03-29,1.5753915667341927
2019-04-01,1.577982014593473
2019-04-02,1.5632251965070365
2019-04-03,1.5550252630095365
2019-04-04,1.4389262777396499
2019-04-05,1.4168560568752502
2019-04-08,1.3971863179511153
2019-04-09,1.3654289589940953
2019-04-10,1.3799536359961817
2019-04-11,1.3789689368030522
2019-04-12,1.3804460090703867
2019-04-15,1.3768631123997361
2019-04-16,1.3595379109667085
2019-04-17,1.3199883946649986
2019-04-18,1.3018702277021874
2019-04-22,1.3308114206731942
2019-04-23,1.3625587512655635
2019-04-24,1.3754764841397242
2019-04-25,1.3421033434070855
2019-04-26,1.3597211957223618
2019-04-29,1.3597848336522143
2019-04-30,1.3496031587470023
2019-05-01,1.3312814744101624
2019-05-02,1.3737009626460088
2019-05-03,1.3886873574120004
2019-05-06,1.3609099226225019
2019-05-07,1.3184954511539284
2019-05-08,1.323951852003592
2019-05-09,1.320999293827235
2019-05-10,1.3554731511986278
2019-05-13,1.2979746374794747
2019-05-14,1.3153840283295184
2019-05-15,1.316394226323249
2019-05-16,1.2895807292087007
2019-05-17,1.2773011203664684
2019-05-20,1.269992247850416
2019-05-21,1.2743749374902085
2019-05-22,1.2808719549101801
2019-05-23,1.2621040621424686
2019-05-24,1.2683819269169065
2019-05-28,1.2781383391708228
2019-05-29,1.2538930390484748
2019-05-30,1.2666324222752743
2019-05-31,1.2447411229362757
2019-06-03,1.2440079357022351
2019-06-04,1.2440079357022351
2019-06-05,1.2440079357022351
2019-06-06,1.2440079357022351
2019-06-07,1.2440079357022351
2019-06-10,1.2394819544554299
2019-06-11,1.2057534962027696
2019-06-12,1.224533962053436
2019-06-13,1.2205070817375236
2019-06-14,1.2121027661136328
2019-06-17,1.2110280262328375
2019-06-18,1.2127473113095077
2019-06-19,1.286262734432373
2019-06-20,1.2872797161620155
2019-06-21,1.2709722743880238
2019-06-24,1.2242512533550833
2019-06-25,1.1753286068603481
2019-06-26,1.156235947881445
2019-06-27,1.156235947881445
2019-06-28,1.156235947881445
2019-07-01,1.1381629201167227
2019-07-02,1.1525283382806546
2019-07-03,1.1541855942139945
2019-07-05,1.1605536993286596
2019-07-08,1.184011916527451
2019-07-09,1.2060338177757883
2019-07-10,1.21210862251578
2019-07-11,1.1913210508582441
2019-07-12,1.1847195359537719
2019-07-15,1.2324054558712176
2019-07-16,1.2101648949795791
2019-07-17,1.2204742556280999
2019-07-18,1.2204846407534333
2019-07-19,1.2094193092028798
2019-07-22,1.2254187496971851
2019-07-23,1.2276533149027244
2019-07-24,1.2377106669637397
2019-07-25,1.2367715251533062
2019-07-26,1.2491312384239723
2019-07-29,1.2077824635425185
2019-07-30,1.2047399405393837
2019-07-31,1.1680740820314226
2019-08-01,1.212116701370955
2019-08-02,1.1948818515025001
2019-08-05,1.1721628907750394
2019-08-06,1.1983289991147048
2019-08-07,1.2152544200548645
2019-08-08,1.2494004486179038
2019-08-09,1.2722355032963586
2019-08-12,1.2619199440465976
2019-08-13,1.2719035324868535
2019-08-14,1.2358548724033673
2019-08-15,1.2344936341086192
2019-08-16,1.2519131364945923
2019-08-19,1.2581332019252918
2019-08-20,1.2795750729595219
2019-08-21,1.3095394503699078
2019-08-22,1.307646650601355
2019-08-23,1.291284003348652
2019-08-26,1.3215778450407987
2019-08-27,1.3409775211879604
2019-08-28,1.3211611792978228
2019-08-29,1.31731385760403
2019-08-30,1.3019612884453404
2019-09-03,1.2998358400136087
2019-09-04,1.3026352590585715
2019-09-05,1.3126114024776148
2019-09-06,1.2901238287885661
2019-09-09,1.2478233908822363
2019-09-10,1.2439174429338475
2019-09-11,1.2439174429338475
2019-09-12,1.2439174429338475
2019-09-13,1.2439174429338475
2019-09-16,1.2618627010357235
2019-09-17,1.2764221995815999
2019-09-18,1.2943950438974543
2019-09-19,1.2829297542324105
2019-09-20,1.267450821479696
2019-09-23,1.2816724278779468
2019-09-24,1.2634696286291014
2019-09-25,1.2926248441957784
2019-09-26,1.2873859996591404
2019-09-27,1.246570783987797
2019-09-30,1.2525043292084947
2019-10-01,1.2466745224109839
2019-10-02,1.2298754427373428
2019-10-03,1.2392903256521821
2019-10-04,1.2623845559584796
2019-10-07,1.260595832440511
2019-10-08,1.2272512408632381
2019-10-09,1.2470172619413016
2019-10-10,1.2487108063511076
2019-10-11,1.2638626253968686
2019-10-14,1.2576595326067572
2019-10-15,1.2803969490986447
2019-10-16,1.2582667545207689
2019-10-17,1.267908670407484
2019-10-18,1.2570331904803695
2019-10-21,1.2815311695374239
2019-10-22,1.2717660007037908
2019-10-23,1.252269746170604
2019-10-24,1.3382871974313693
2019-10-25,1.349360756767235
2019-10-28,1.3848399567653704
2019-10-29,1.35954731778076
2019-10-30,1.372208497900727
2019-10-31,1.346945297856577
2019-11-01,1.3709035231248774
2019-11-04,1.3773752599796363
2019-11-05,1.3686421179167731
2019-11-06,1.367579117977062
2019-11-07,1.3632902429543692
2019-11-08,1.3707930071970096
2019-11-11,1.3697801753697472
2019-11-12,1.368037086754602
2019-11-13,1.3794406553809582
2019-11-14,1.384065351789014
2019-11-15,1.4046211368309867
2019-11-18,1.3996741467121985
2019-11-19,1.387346683489611
2019-11-20,1.3740205669993015
2019-11-21,1.3345637516060584
2019-11-22,1.3329544224086378
2019-11-25,1.3224012206383806
2019-11-26,1.2945405512442525
2019-11-27,1.306214591654495
2019-11-29,1.2992145721069832
2019-12-02,1.301670617817154
2019-12-03,1.3071134336254382
2019-12-04,1.3143069456682266
2019-12-05,1.3079771085324174
2019-12-06,1.3188305691849753
2019-12-09,1.3140652050041037
2019-12-10,1.3406911213166028
2019-12-11,1.3486688513738276
2019-12-12,1.4148228339896378
2019-12-13,1.388029042114627
2019-12-16,1.453008825144027
2019-12-17,1.4552370599426487
2019-12-18,1.4747153221252969
2019-12-19,1.5047370676648746
2019-12-20,1.5300094202042638
2019-12-23,1.5784954794614818
2019-12-24,1.6083900590656013
2019-12-26,1.6209223749968267
2019-12-27,1.612245596977667
2019-12-30,1.5707588359324274
2019-12-31,1.583521914380981
2020-01-02,1.6612820020394174
2020-01-03,1.6775249161364338
2020-01-06,1.6904925802370814
2020-01-07,1.722042665383055
2020-01-08,1.7596305470004898
2020-01-09,1.7579607011017524
2020-01-10,1.7382877392344698
2020-01-13,1.8384873989102979
2020-01-14,1.8546554144215446
2020-01-15,1.822802196871807
2020-01-16,1.8336895714873962
2020-01-17,1.8474745250688875
2020-01-21,1.9205369881928664
2020-01-22,1.9702295192909902
2020-01-23,1.9800639276868313
2020-01-24,1.9428318639956268
2020-01-27,1.8908620104944731
2020-01-28,1.9080504059234813
2020-01-29,1.9353235224384049
2020-01-30,2.0511131816394026
2020-01-31,2.070004921592203
2020-02-03,2.3225077038799715
2020-02-04,2.557560630010182
2020-02-05,2.373088954361012
2020-02-06,2.3686218866126527
2020-02-07,2.378508311417784
2020-02-10,2.437078081100065
2020-02-11,2.440525075994649
2020-02-12,2.498320745269612
2020-02-13,2.5299060874986736
2020-02-14,2.531106735082904
2020-02-18,2.575348180162731
2020-02-19,2.6135130113191334
2020-02-20,2.561021172025365
2020-02-21,2.4252627274887875
2020-02-24,2.4327685467610083
2020-02-25,2.377465703955413
2020-02-26,2.3681476186357484
2020-02-27,2.2976219691283486
2020-02-28,2.2976219691283486
2020-03-02,2.3221402532408453
2020-03-03,2.296145364451281
2020-03-04,2.3759862165377714
2020-03-05,2.3458572372641977
2020-03-06,2.3388980091478073
2020-03-09,2.2491887139892492
2020-03-10,2.2491887139892492
2020-03-11,2.2491887139892492
2020-03-12,2.2491887139892492
2020-03-13,2.2491887139892492
2020-03-16,2.2491887139892492
2020-03-17,2.2491887139892492
2020-03-18,2.2491887139892492
2020-03-19,2.2491887139892492
2020-03-20,2.2491887139892492
2020-03-23,2.2491887139892492
2020-03-24,2.2491887139892492
2020-03-25,2.2491887139892492
2020-03-26,2.2491887139892492
2020-03-27,2.2491887139892492
2020-03-30,2.2491887139892492
2020-03-31,2.2491887139892492
2020-04-01,2.2491887139892492
2020-04-02,2.2491887139892492
2020-04-03,2.2491887139892492
2020-04-06,2.2491887139892492
2020-04-07,2.2491887139892492
2020-04-08,2.2491887139892492
2020-04-09,2.2491887139892492
2020-04-13,2.231791577145432
2020-04-14,2.3486200773373125
2020-04-15,2.427792559973886
2020-04-16,2.4666009312094097
2020-04-17,2.4499747290480713
2020-04-20,2.565620575599839
2020-04-21,2.4262181860498
2020-04-22,2.49539180185291
2020-04-23,2.4999077480011955
2020-04-24,2.5819584401322846
2020-04-27,2.665161776603958
2020-04-28,2.5319960830481447
2020-04-29,2.5139337050384265
2020-04-30,2.490428864859881
2020-05-01,2.516441652388055
2020-05-04,2.6374446308913937
2020-05-05,2.6395412325976833
2020-05-06,2.6790378760597355
2020-05-07,2.7792874306179725
2020-05-08,2.7876393918489732
2020-05-11,2.830179447572691
2020-05-12,2.8196679989572315
2020-05-13,2.805147632727535
2020-05-14,2.8242814176128412
2020-05-15,2.837809520265523
2020-05-18,2.7723162041659197
2020-05-19,2.8449444438328886
2020-05-20,2.923842787799284
2020-05-21,2.8915448640244286
2020-05-22,2.945971536005166
2020-05-26,2.8829443525123732
2020-05-27,2.8216121877466165
2020-05-28,2.8732032187980976
2020-05-29,3.4259442051300266
2020-06-01,3.7711487950985125
2020-06-02,3.6539917735392704
2020-06-03,3.78920636499409
2020-06-04,3.6714995671382438
2020-06-05,3.566042604168743
2020-06-08,3.655388757249988
2020-06-09,3.6406564154725505
2020-06-10,3.74245188499881
2020-06-11,3.6467727419399703
2020-06-12,3.6058553437735728
2020-06-15,3.756270070703632
2020-06-16,3.765394016300726
2020-06-17,3.77903630156153
2020-06-18,3.9563531355326518
2020-06-19,3.8673673305137943
2020-06-22,3.96308800634372
2020-06-23,3.9597900135015385
2020-06-24,3.9127215176404633
2020-06-25,4.010550831204483
2020-06-26,3.7778127950074794
2020-06-29,3.753716826951585
2020-06-30,3.868388775602604
2020-07-01,3.955278732737613
2020-07-02,4.016201809839527
2020-07-06,4.079429564529947
2020-07-07,4.063496286090057
2020-07-08,4.34429250181858
2020-07-09,4.51596903894904
2020-07-10,4.466530883661821
2020-07-13,4.166068704715773
2020-07-14,4.096472653221966
2020-07-15,4.050968767126109
2020-07-16,4.003708137771733
2020-07-17,4.059226237879796
2020-07-20,4.346106601125762
2020-07-21,4.213088327560182
2020-07-22,4.237463392364422
2020-07-23,4.106960928094326
2020-07-24,3.9123376724037287
2020-07-27,4.096978498964242
2020-07-28,4.010358043295952
2020-07-29,4.083822910966186
2020-07-30,4.11021923321192
2020-07-31,4.049933004939472
2020-08-03,4.164943579742959
2020-08-04,4.16583463519595
2020-08-05,4.1992279122296265
2020-08-06,4.16533429862285
2020-08-07,4.006789564618379
2020-08-10,3.8446973411229846
2020-08-11,3.790085465451264
2020-08-12,4.013044642893031
2020-08-13,4.09492532240183
2020-08-14,4.1316504935401905
2020-08-17,4.368616338823318
2020-08-18,4.412938806745653
2020-08-19,4.38790039535593
2020-08-20,4.582924540157291
2020-08-21,4.668821487219282
2020-08-24,4.606078017830927
2020-08-25,4.700314031329721
2020-08-26,4.852429737514236
2020-08-27,4.901910685714014
2020-08-28,4.914960760309376
2020-08-31,5.392514444613199
2020-09-01,5.283185827034495
2020-09-02,4.844044872960105
2020-09-03,4.666945553048606
2020-09-04,4.666945553048606
2020-09-08,4.670340456346281
2020-09-09,4.714765327331816
2020-09-10,4.702010193217764
2020-09-11,4.679215698901312
2020-09-14,4.702997730759201
2020-09-15,4.7545376912667425
2020-09-16,4.746544261078032
2020-09-17,4.69349932839174
2020-09-18,4.7111900588267215
2020-09-21,4.7837407391674915
2020-09-22,4.838773822188553
2020-09-23,4.744117969498159
2020-09-24,4.708512759504652
2020-09-25,4.756555111854236
2020-09-28,4.785167725327303
2020-09-29,4.779030689300679
2020-09-30,4.8067095075609565
2020-10-01,4.8680179213600905
2020-10-02,4.813302819470181
2020-10-05,4.877168698172941
2020-10-06,4.872723755268351
2020-10-07,4.915303058602817
2020-10-08,4.901770135371217
2020-10-09,4.935216883213387
2020-10-12,4.962456337968424
2020-10-13,5.0241193244410605
2020-10-14,4.953851587121
2020-10-15,4.911598285782054
2020-10-16,4.9154399564496
2020-10-19,4.892025489648793
2020-10-20,4.878127115641314
2020-10-21,4.787147063208337
2020-10-22,4.751173340735596
2020-10-23,4.751173340735596
2020-10-26,4.719060453000456
2020-10-27,4.7172983707563585
2020-10-28,4.668875245251045
2020-10-29,4.739107091443093
2020-10-30,4.631181461214959
2020-11-02,4.638512882219808
2020-11-03,4.668804954624975
2020-11-04,4.776079750108964
2020-11-05,5.040505769596912
2020-11-06,5.08058805837663
2020-11-09,4.916820677475817
2020-11-10,4.813349067674693
2020-11-11,4.88394800813005
2020-11-12,4.848741727633469
2020-11-13,4.852001608415781
2020-11-16,4.920236846667446
2020-11-17,4.901206916857213
2020-11-18,4.8964364222884145
2020-11-19,4.908386795981655
2020-11-20,4.8530290410226
2020-11-23,4.912726759491877
2020-11-24,4.993212711241104
2020-11-25,4.953045152721556
2020-11-27,4.946727177343954
2020-11-30,4.924979776142904
2020-12-01,4.961577315269972
2020-12-02,5.128214391456642
2020-12-03,5.099136881008991
2020-12-04,5.28793838107303
2020-12-07,5.238824315500626
2020-12-08,5.206727917961033
2020-12-09,5.219617419367714
2020-12-10,5.245015892375746
2020-12-11,5.077023654765638
2020-12-14,5.003703175898648
2020-12-15,4.9454316676435095
2020-12-16,4.932901843951129
2020-12-17,5.1968972987707724
2020-12-18,5.225210459244232
2020-12-21,5.33006342526911
2020-12-22,5.51988894751965
2020-12-23,5.3746320379318595
2020-12-24,5.349442757286139
2020-12-28,5.193691946702764
2020-12-29,5.214241526434865
2020-12-30,5.267080971079764
2020-12-31,5.1163685005330395
2021-01-04,5.061496815045858
2021-01-05,5.241517668960084
2021-01-06,5.047207385544461
2021-01-07,5.229211560068553
2021-01-08,5.08709865674771
2021-01-11,5.043092775423673
2021-01-12,5.349498595627585
2021-01-13,5.406602238770551
2021-01-14,5.255515998392829
2021-01-15,5.132299121606954
2021-01-19,5.223811338898477
2021-01-20,5.244681948949136
2021-01-21,5.19963966568127
2021-01-22,5.130561708169607
2021-01-25,5.079893789415874
2021-01-26,5.086446054228622
2021-01-27,5.032282795672165
2021-01-28,4.95007915482046
2021-01-29,4.830193376947454
2021-02-01,4.945113230351199
2021-02-02,5.091745997664335
2021-02-03,5.022797934957566
2021-02-04,5.075843559137644
2021-02-05,5.0768340132119505
2021-02-08,5.095643004806442
2021-02-09,5.071053303452766
2021-02-10,5.029464658585857
2021-02-11,5.087983351687303
2021-02-12,5.183155895113636
2021-02-16,5.129829694953644
2021-02-17,5.0359883293289744
2021-02-18,5.043777927720701
2021-02-19,5.043213431614339
2021-02-22,4.8453852146931045
2021-02-23,4.664710960517056
2021-02-24,4.664710960517056
2021-02-25,4.664710960517056
2021-02-26,4.664710960517056
2021-03-01,4.6777218977933375
2021-03-02,4.5867396678341255
2021-03-03,4.542491608037709
2021-03-04,4.421543694625757
2021-03-05,4.406130690118909
2021-03-08,4.292823593006616
2021-03-09,4.429076486549173
2021-03-10,4.365658171537197
2021-03-11,4.458203501957625
2021-03-12,4.410731400958027
2021-03-15,4.4299245353393335
2021-03-16,4.497362466376909
2021-03-17,4.552448771262652
2021-03-18,4.436129060281977
2021-03-19,4.450374630703651
2021-03-22,4.5036022366562145
2021-03-23,4.401665798487901
2021-03-24,4.447758486196621
2021-03-25,4.434282103660397
2021-03-26,4.521389178201364
2021-03-29,4.5100225381943915
2021-03-30,4.494583427031117
2021-03-31,4.569473227020444
2021-04-01,4.666173398945045
2021-04-05,4.751153343823342
2021-04-06,4.682385311401177
2021-04-07,4.702764129505127
2021-04-08,4.732971565009963
2021-04-09,4.771261697779794
2021-04-12,4.632771069928385
2021-04-13,4.6270605771166515
2021-04-14,4.581434498913927
2021-04-15,4.613283107913661
2021-04-16,4.597139939522002
2021-04-19,4.5118723410998225
2021-04-20,4.490931150635408
2021-04-21,4.490931150635408
2021-04-22,4.490931150635408
2021-04-23,4.490931150635408
2021-04-26,4.530770953396582
2021-04-27,4.510292969033648
2021-04-28,4.511343851119265
2021-04-29,4.491912757132203
2021-04-30,4.451892780654822
2021-05-03,4.460833075061501
2021-05-04,4.3439511790308085
2021-05-05,4.342652955772982
2021-05-06,4.377157288760893
2021-05-07,4.435389757258099
2021-05-10,4.245780503176686
2021-05-11,4.250859937363398
2021-05-12,4.179777966368854
2021-05-13,4.179777966368854
2021-05-14,4.179777966368854
2021-05-17,4.1816134442510915
2021-05-18,4.153325450898904
2021-05-19,4.1587490096084725
2021-05-20,4.18260211985065
2021-05-21,4.176192399752895
2021-05-24,4.213522627145679
2021-05-25,4.223984195430142
2021-05-26,4.218433008292116
2021-05-27,4.238888912682052
2021-05-28,4.224869622779739
2021-06-01,4.231942581937636
2021-06-02,4.2274283256222756
2021-06-03,4.2116508484925825
2021-06-04,4.231358163132264
2021-06-07,4.223388422137459
2021-06-08,4.216916379054789
2021-06-09,4.20023490123036
2021-06-10,4.207599960933375
2021-06-11,4.203600956865995
2021-06-14,4.235204804058455
2021-06-15,4.208097669300004
2021-06-16,4.191755705806148
2021-06-17,4.309323436025869
2021-06-18,4.284321593907276
2021-06-21,4.268248031389726
2021-06-22,4.344673335481354
2021-06-23,4.369895654318468
2021-06-24,4.3959373512754825
2021-06-25,4.369411894810826
2021-06-28,4.529006070002204
2021-06-29,4.521411936684215
2021-06-30,4.50463361882144
2021-07-01,4.551498789581521
2021-07-02,4.584827860726914
2021-07-06,4.6032676961194525
2021-07-07,4.557262795421286
2021-07-08,4.486053842397615
2021-07-09,4.5192728761774905
2021-07-12,4.582690119793293
2021-07-13,4.548296304875288
2021-07-14,4.485459156455387
2021-07-15,4.40462231437669
2021-07-16,4.393624694435199
2021-07-19,4.379462706984308
2021-07-20,4.416635531571418
2021-07-21,4.4447995416200206
2021-07-22,4.476393206957608
2021-07-23,4.5540155400381686
2021-07-26,4.564845706933858
2021-07-27,4.535294917301375
2021-07-28,4.5539416577155025
2021-07-29,4.509377909505551
2021-07-30,4.512440017552659
2021-08-02,4.492541148489048
2021-08-03,4.496037568335596
2021-08-04,4.534544557065775
2021-08-05,4.552323902478727
2021-08-06,4.545954770707146
2021-08-09,4.541686537610013
2021-08-10,4.5288880510649845
2021-08-11,4.529600048496321
2021-08-12,4.548863439021427
2021-08-13,4.559018626734629
2021-08-16,4.57511386360995
2021-08-17,4.53253908581048
2021-08-18,4.516216824896416
2021-08-19,4.537211445545472
2021-08-20,4.541296030821334
2021-08-23,4.581900270764905
2021-08-24,4.636974060169128
2021-08-25,4.6430685361257655
2021-08-26,4.549766914374201
2021-08-27,4.611198791565716
2021-08-30,4.663025818873426
2021-08-31,4.684730163088318
2021-09-01,4.636071738100981
2021-09-02,4.704213706421985
2021-09-03,4.7638922596662105
2021-09-07,4.71470803863874
2021-09-08,4.734562033703971
2021-09-09,4.754016763554155
2021-09-10,4.610005789746132
2021-09-13,4.554973423903405
2021-09-14,4.605125521164127
2021-09-15,4.622305750322533
2021-09-16,4.709594691941064
2021-09-17,4.692067580025031
2021-09-20,4.670396476534598
2021-09-21,4.723236741776643
2021-09-22,4.832344247906749
2021-09-23,4.819616865053178
2021-09-24,4.802381059473503
2021-09-27,4.6514535174905145
2021-09-28,4.525984258958576
2021-09-29,4.526917314055083
2021-09-30,4.6131447050496535
2021-10-01,4.678138607607673
2021-10-04,4.495961151366862
2021-10-05,4.5790851167299
2021-10-06,4.6037272971172305
2021-10-07,4.5827295040529545
2021-10-08,4.551839991680385
2021-10-11,4.598016283284652
2021-10-12,4.673503345770332
2021-10-13,4.850520592645683
2021-10-14,4.803141641714009
2021-10-15,4.833782669781893
2021-10-18,4.901644394201213
2021-10-19,4.904502239897344
2021-10-20,4.918982661196494
2021-10-21,4.945885388673952
2021-10-22,4.96249119078472
2021-10-25,4.933801598726433
2021-10-26,4.947726185076794
2021-10-27,4.844586468553626
2021-10-28,4.9251629332350895
2021-10-29,5.054771425928337
2021-11-01,5.020872324987451
2021-11-02,5.015664431697507
2021-11-03,4.9575373694272304
2021-11-04,5.017925465769304
2021-11-05,5.33989453581772
2021-11-08,5.495355359397951
2021-11-09,5.574309741555355
2021-11-10,5.409435652501173
2021-11-11,5.45615429242679
2021-11-12,5.519631678368233
2021-11-15,5.4910300418305145
2021-11-16,5.546539029237374
2021-11-17,5.468294710946255
2021-11-18,5.488529309365964
2021-11-19,5.547050083493177
2021-11-22,5.363542828310919
2021-11-23,5.1771622509773065
2021-11-24,5.215585884898796
2021-11-26,5.177668433486967
2021-11-29,5.2916557012606535
2021-11-30,5.223533801122954
2021-12-01,5.027648747541251
2021-12-02,5.06996210962116
2021-12-03,4.926765608210344
2021-12-06,4.804291819223566
2021-12-07,4.804291819223566
2021-12-08,4.804291819223566
2021-12-09,4.804291819223566
2021-12-10,4.804291819223566
2021-12-13,4.680992684423952
2021-12-14,4.620503213167051
2021-12-15,4.797756667690815
2021-12-16,4.596706535441549
2021-12-17,4.662629003358805
2021-12-20,4.704542788458928
2021-12-21,4.78199794996126
2021-12-22,4.869609382124127
2021-12-23,4.889832778355489
2021-12-27,5.010045417995868
2021-12-28,4.914173743089619
2021-12-29,4.94271068500733
2021-12-30,4.884454828138793
2021-12-31,4.887054963239592
2022-01-03,4.931189647155364
2022-01-04,4.93170036776973
2022-01-05,4.711094158927407
2022-01-06,4.727838467778591
2022-01-07,4.616728528440609
2022-01-10,4.559725581062608
2022-01-11,4.563477431852182
2022-01-12,4.574490371839753
2022-01-13,4.5806624912568745
2022-01-14,4.601720093791784
2022-01-18,4.504202731058707
2022-01-19,4.4694695908428805
2022-01-20,4.443939712429797
2022-01-21,4.443939712429797
2022-01-24,4.443939712429797
2022-01-25,4.443939712429797
2022-01-26,4.443939712429797
2022-01-27,4.443939712429797
2022-01-28,4.443939712429797
2022-01-31,4.443939712429797
2022-02-01,4.443939712429797
2022-02-02,4.443939712429797
2022-02-03,4.443939712429797
2022-02-04,4.443939712429797
2022-02-07,4.443939712429797
2022-02-08,4.443939712429797
2022-02-09,4.443939712429797
2022-02-10,4.443939712429797
2022-02-11,4.443939712429797
2022-02-14,4.443939712429797
2022-02-15,4.443939712429797
2022-02-16,4.443939712429797
2022-02-17,4.443939712429797
2022-02-18,4.443939712429797
2022-02-22,4.443939712429797
2022-02-23,4.443939712429797
2022-02-24,4.443939712429797
2022-02-25,4.443939712429797
2022-02-28,4.443939712429797
2022-03-01,4.443939712429797
2022-03-02,4.443939712429797
2022-03-03,4.443939712429797
2022-03-04,4.443939712429797
2022-03-07,4.443939712429797
2022-03-08,4.443939712429797
2022-03-09,4.443939712429797
2022-03-10,4.443939712429797
2022-03-11,4.443939712429797
2022-03-14,4.443939712429797
2022-03-15,4.443939712429797
2022-03-16,4.443939712429797
2022-03-17,4.443939712429797
2022-03-18,4.443939712429797
2022-03-21,4.443939712429797
2022-03-22,4.443939712429797
2022-03-23,4.443939712429797
2022-03-24,4.443939712429797
2022-03-25,4.443939712429797
2022-03-28,4.443939712429797
2022-03-29,4.443939712429797
2022-03-30,4.443939712429797
2022-03-31,4.443939712429797
2022-04-01,4.443939712429797
2022-04-04,4.443939712429797
2022-04-05,4.443939712429797
2022-04-06,4.443939712429797
2022-04-07,4.443939712429797
2022-04-08,4.443939712429797
2022-04-11,4.443939712429797
2022-04-12,4.443939712429797
2022-04-13,4.443939712429797
2022-04-14,4.443939712429797
2022-04-18,4.443939712429797
2022-04-19,4.443939712429797
2022-04-20,4.443939712429797
2022-04-21,4.443939712429797
2022-04-22,4.443939712429797
2022-04-25,4.443939712429797
2022-04-26,4.443939712429797
2022-04-27,4.443939712429797
2022-04-28,4.443939712429797
2022-04-29,4.443939712429797
2022-05-02,4.443939712429797
2022-05-03,4.443939712429797
2022-05-04,4.443939712429797
2022-05-05,4.443939712429797
2022-05-06,4.443939712429797
2022-05-09,4.443939712429797
2022-05-10,4.443939712429797
2022-05-11,4.443939712429797
2022-05-12,4.443939712429797
2022-05-13,4.443939712429797
2022-05-16,4.443939712429797
2022-05-17,4.443939712429797
2022-05-18,4.443939712429797
2022-05-19,4.443939712429797
2022-05-20,4.443939712429797
2022-05-23,4.443939712429797
2022-05-24,4.443939712429797
2022-05-25,4.443939712429797
2022-05-26,4.443939712429797
2022-05-27,4.443939712429797
2022-05-31,4.443939712429797
2022-06-01,4.443939712429797
2022-06-02,4.443939712429797
2022-06-03,4.443939712429797
2022-06-06,4.443939712429797
2022-06-07,4.443939712429797
2022-06-08,4.443939712429797
2022-06-09,4.443939712429797
2022-06-10,4.443939712429797
2022-06-13,4.443939712429797
2022-06-14,4.443939712429797
2022-06-15,4.443939712429797
2022-06-16,4.443939712429797
2022-06-17,4.443939712429797
2022-06-21,4.443939712429797
2022-06-22,4.443939712429797
2022-06-23,4.443939712429797
2022-06-24,4.443939712429797
2022-06-27,4.443939712429797
2022-06-28,4.443939712429797
2022-06-29,4.443939712429797
2022-06-30,4.443939712429797
2022-07-01,4.443939712429797
2022-07-05,4.443939712429797
2022-07-06,4.443939712429797
2022-07-07,4.443939712429797
2022-07-08,4.443939712429797
2022-07-11,4.443939712429797
2022-07-12,4.443939712429797
2022-07-13,4.443939712429797
2022-07-14,4.443939712429797
2022-07-15,4.443939712429797
2022-07-18,4.443939712429797
2022-07-19,4.443939712429797
2022-07-20,4.443939712429797
2022-07-21,4.443939712429797
2022-07-22,4.443939712429797
2022-07-25,4.443939712429797
2022-07-26,4.443939712429797
2022-07-27,4.443939712429797
2022-07-28,4.443939712429797
2022-07-29,4.443939712429797
2022-08-01,4.443939712429797
2022-08-02,4.443939712429797
2022-08-03,4.443939712429797
2022-08-04,4.443939712429797
2022-08-05,4.443939712429797
2022-08-08,4.443939712429797
2022-08-09,4.443939712429797
2022-08-10,4.443939712429797
2022-08-11,4.443939712429797
2022-08-12,4.443939712429797
2022-08-15,4.443939712429797
2022-08-16,4.443939712429797
2022-08-17,4.443939712429797
2022-08-18,4.443939712429797
2022-08-19,4.443939712429797
2022-08-22,4.443939712429797
2022-08-23,4.443939712429797
2022-08-24,4.443939712429797
2022-08-25,4.443939712429797
2022-08-26,4.443939712429797
2022-08-29,4.443939712429797
2022-08-30,4.443939712429797
2022-08-31,4.443939712429797
2022-09-01,4.443939712429797
2022-09-02,4.443939712429797
2022-09-06,4.443939712429797
2022-09-07,4.443939712429797
2022-09-08,4.443939712429797
2022-09-09,4.443939712429797
2022-09-12,4.443939712429797
2022-09-13,4.443939712429797
2022-09-14,4.443939712429797
2022-09-15,4.443939712429797
2022-09-16,4.443939712429797
2022-09-19,4.443939712429797
2022-09-20,4.443939712429797
2022-09-21,4.443939712429797
2022-09-22,4.443939712429797
2022-09-23,4.443939712429797
2022-09-26,4.443939712429797
2022-09-27,4.443939712429797
2022-09-28,4.443939712429797
2022-09-29,4.443939712429797
2022-09-30,4.443939712429797
2022-10-03,4.443939712429797
2022-10-04,4.443939712429797
2022-10-05,4.443939712429797
2022-10-06,4.443939712429797
2022-10-07,4.443939712429797
2022-10-10,4.443939712429797
2022-10-11,4.443939712429797
2022-10-12,4.443939712429797
2022-10-13,4.443939712429797
2022-10-14,4.443939712429797
2022-10-17,4.443939712429797
2022-10-18,4.443939712429797
2022-10-19,4.443939712429797
2022-10-20,4.443939712429797
2022-10-21,4.443939712429797
2022-10-24,4.443939712429797
2022-10-25,4.443939712429797
2022-10-26,4.443939712429797
2022-10-27,4.443939712429797
2022-10-28,4.443939712429797
2022-10-31,4.443939712429797
2022-11-01,4.443939712429797
2022-11-02,4.443939712429797
2022-11-03,4.443939712429797
2022-11-04,4.443939712429797
2022-11-07,4.443939712429797
2022-11-08,4.443939712429797
2022-11-09,4.443939712429797
2022-11-10,4.443939712429797
2022-11-11,4.443939712429797
2022-11-14,4.443939712429797
2022-11-15,4.443939712429797
2022-11-16,4.443939712429797
2022-11-17,4.443939712429797
2022-11-18,4.443939712429797
2022-11-21,4.443939712429797
2022-11-22,4.443939712429797
2022-11-23,4.443939712429797
2022-11-25,4.443939712429797
2022-11-28,4.443939712429797
2022-11-29,4.443939712429797
2022-11-30,4.443939712429797
2022-12-01,4.443939712429797
2022-12-02,4.443939712429797
2022-12-05,4.443939712429797
2022-12-06,4.443939712429797
2022-12-07,4.443939712429797
2022-12-08,4.443939712429797
2022-12-09,4.443939712429797
2022-12-12,4.443939712429797
2022-12-13,4.443939712429797
2022-12-14,4.443939712429797
2022-12-15,4.443939712429797
2022-12-16,4.443939712429797
2022-12-19,4.443939712429797
2022-12-20,4.443939712429797
2022-12-21,4.443939712429797
2022-12-22,4.443939712429797
2022-12-23,4.443939712429797
2022-12-27,4.443939712429797
2022-12-28,4.443939712429797
2022-12-29,4.443939712429797
2022-12-30,4.443939712429797
2023-01-03,4.443939712429797
2023-01-04,4.443939712429797
2023-01-05,4.443939712429797
2023-01-06,4.443939712429797
2023-01-09,4.443939712429797
2023-01-10,4.443939712429797
2023-01-11,4.443939712429797
2023-01-12,4.443939712429797
2023-01-13,4.443939712429797
2023-01-17,4.443939712429797
2023-01-18,4.443939712429797
2023-01-19,4.443939712429797
2023-01-20,4.443939712429797
2023-01-23,4.443939712429797
2023-01-24,4.443939712429797
2023-01-25,4.443939712429797
2023-01-26,4.443939712429797
2023-01-27,4.443939712429797
2023-01-30,4.443939712429797
2023-01-31,4.443939712429797
2023-02-01,4.443939712429797
2023-02-02,4.443939712429797
2023-02-03,4.443939712429797
2023-02-06,4.468563988475779
2023-02-07,4.650560609043815
2023-02-08,4.556417315264657
2023-02-09,4.504878497992054
2023-02-10,4.345485119339304
2023-02-13,4.464236293843555
2023-02-14,4.591169969119381
2023-02-15,4.541426923342453
2023-02-16,4.403824042483074
2023-02-17,4.343493504010761
2023-02-21,4.25568301149664
2023-02-22,4.2548204276451855
2023-02-23,4.563895380456907
2023-02-24,4.523526787051103
2023-02-27,4.530952176650372
2023-02-28,4.536366735790246
2023-03-01,4.470956019099624
2023-03-02,4.544111018514075
2023-03-03,4.676796160142951
2023-03-06,4.638589575476598
2023-03-07,4.608015356810325
2023-03-08,4.706452673979838
2023-03-09,4.6051009438125865
2023-03-10,4.54031927127893
2023-03-13,4.549654437725099
2023-03-14,4.753933197161929
2023-03-15,4.796321380710189
2023-03-16,4.984235835297708
2023-03-17,4.942012608985561
2023-03-20,4.975310829901037
2023-03-21,5.0361277968990255
2023-03-22,5.049258780570963
2023-03-23,5.156160856875083
2023-03-24,5.123639757551992
2023-03-27,5.076104375892273
2023-03-28,5.0488395043190515
2023-03-29,5.141154860927092
2023-03-30,5.200304624944227
2023-03-31,5.269608903819938
2023-04-03,5.2971919298828
2023-04-04,5.253458717841802
2023-04-05,5.170850836573589
2023-04-06,5.2181868334886765
2023-04-10,5.267115846031141
2023-04-11,5.217347794533216
2023-04-12,5.146351868464215
2023-04-13,5.185092497884645
2023-04-14,5.224170511946344
2023-04-17,5.232771853030842
2023-04-18,5.297362367299883
2023-04-19,5.311021357607595
2023-04-20,5.205226257547993
2023-04-21,5.205633395595436
2023-04-24,5.19674515310188
2023-04-25,5.0763987709380185
2023-04-26,5.16505228379819
2023-04-27,5.387488735277461
2023-04-28,5.455036857256081
2023-05-01,5.598034376432887
2023-05-02,5.497107270912586
2023-05-03,5.438855417571865
2023-05-04,5.389916678098217
2023-05-05,5.504420418213403
2023-05-08,5.5579827179436165
2023-05-09,5.496695168777377
2023-05-10,5.528308814516162
2023-05-11,5.513508969945201
2023-05-12,5.474942784720653
2023-05-15,5.573946193986583
2023-05-16,5.601452098327984
2023-05-17,5.728891832546449
2023-05-18,5.918058358803638
2023-05-19,5.865804472915126
2023-05-22,5.874197225753386
2023-05-23,5.8115829699279615
2023-05-24,5.8119601933372635
2023-05-25,6.629964673300284
2023-05-26,6.7952205007025785
2023-05-30,6.922844708722801
2023-05-31,6.694238800769213
2023-06-01,6.953410867884973
2023-06-02,6.906092423898281
2023-06-05,6.881330962821076
2023-06-06,6.824316105868068
2023-06-07,6.648871180371906
2023-06-08,6.765940653610031
2023-06-09,6.79617089180625
2023-06-12,6.912727991852863
2023-06-13,7.079030233635333
2023-06-14,7.30348515583133
2023-06-15,7.323036811871944
2023-06-16,7.321691933844706
2023-06-20,7.463016023995122
2023-06-21,7.363650340750517
2023-06-22,7.38302422578445
2023-06-23,7.3214166954978275
2023-06-26,7.084838458278108
2023-06-27,7.274690231710011
2023-06-28,7.181927363861076
2023-06-29,7.125449866181848
2023-06-30,7.319732383804469
2023-07-03,7.325217044725363
2023-07-05,7.3703995201991095
2023-07-06,7.331737592003794
2023-07-07,7.364774074970535
2023-07-10,7.353971643242346
2023-07-11,7.405824252979089
2023-07-12,7.639101521548614
2023-07-13,7.8877828464632955
2023-07-14,7.803374803038951
2023-07-17,7.920962141742217
2023-07-18,8.040805775728233
2023-07-19,8.022550055852927
2023-07-20,7.766664501704048
2023-07-21,7.58246119276491
2023-07-24,7.592587794603789
2023-07-25,7.706569177630647
2023-07-26,7.682319841281726
2023-07-27,7.73017742222631
2023-07-28,7.8209771395213155
2023-07-31,7.7775714168919645
2023-08-01,7.815347286939776
2023-08-02,7.42486875290963
2023-08-03,7.4646430915655415
2023-08-04,7.624650826677794
2023-08-07,7.831590694684663
2023-08-08,7.701470630685193
2023-08-09,7.108019048509805
2023-08-10,7.108019048509805
2023-08-11,7.108019048509805
2023-08-14,7.1895557208411685
2023-08-15,7.165249801722817
2023-08-16,7.135516191638342
2023-08-17,7.032344574158806
2023-08-18,7.021536225212024
2023-08-21,7.054061068282783
2023-08-22,7.087966640029855
2023-08-23,7.1340595981098796
2023-08-24,7.053722555604131
2023-08-25,7.074418546274438
2023-08-28,7.1099638553800535
2023-08-29,7.178852082027413
2023-08-30,7.236085284657564
2023-08-31,7.226004727523238
2023-09-01,7.229706068260924
2023-09-05,7.162481639224323
2023-09-06,7.080722672876854
2023-09-07,7.092291713837243
2023-09-08,7.075632266609555
2023-09-11,7.07629050400317
2023-09-12,7.022648137941854
2023-09-13,6.955382385254056
2023-09-14,7.074598768502943
2023-09-15,7.02347807074738
2023-09-18,7.058778009878573
2023-09-19,6.826502181843739
2023-09-20,6.78979819866865
2023-09-21,6.78979819866865
2023-09-22,6.78979819866865
2023-09-25,6.7647243088005276
2023-09-26,6.784427216185986
2023-09-27,6.81088698846008
2023-09-28,6.845731773205453
2023-09-29,6.854994204410785
2023-10-02,6.862096094960538
2023-10-03,6.749730425813878
2023-10-04,6.799015967485933
2023-10-05,6.809732932446885
2023-10-06,6.944420929985048
2023-10-09,7.024029665093912
2023-10-10,7.043472838795308
2023-10-11,7.167647041181518
2023-10-12,7.169862955926239
2023-10-13,7.144607757968169
2023-10-16,7.182690846226016
2023-10-17,7.161526445182348
2023-10-18,7.163011394531576
2023-10-19,7.109820101351413
2023-10-20,7.038072174121929
2023-10-23,7.004945343425044
2023-10-24,7.063572315228058
2023-10-25,6.960442325997935
2023-10-26,6.891963946600821
2023-10-27,6.885063709841919
2023-10-30,6.901694313247488
2023-10-31,6.905852193930366
2023-11-01,6.9214165821338405
2023-11-02,6.928345671514008
2023-11-03,6.919177810261454
2023-11-06,6.881258594331479
2023-11-07,6.991593248917065
2023-11-08,7.004105276678835
2023-11-09,6.94386674368636
2023-11-10,7.069643297335675
2023-11-13,7.170632662879779
2023-11-14,7.298610565818507
2023-11-15,7.25396584549582
2023-11-16,7.1799616173453185
2023-11-17,7.231573473273224
2023-11-20,7.358277531604168
2023-11-21,7.1245093107832975
2023-11-22,7.117708119241822
2023-11-24,7.05526544324097
2023-11-27,7.024468746404146
2023-11-28,7.171188870509603
2023-11-29,7.597147889622683
2023-11-30,7.678815364242453
2023-12-01,7.679606949263553
2023-12-04,7.479069771934576
2023-12-05,7.507987167791786
2023-12-06,7.516223069568032
2023-12-07,7.529949665617879
2023-12-08,7.573508819781922
2023-12-11,7.7017782486157005
2023-12-12,7.743940108769671
2023-12-13,7.769609485420064
2023-12-14,7.808320883272151
2023-12-15,7.911155059941592
2023-12-18,7.899408254276067
2023-12-19,7.892370605802016
2023-12-20,7.738854191314467
2023-12-21,7.840265557051131
2023-12-22,7.822069873125826
2023-12-26,7.8768202383465304
2023-12-27,7.93297602984835
2023-12-28,7.904064907831161
2023-12-29,7.809264713172984
2024-01-02,7.5048195977228005
2024-01-03,7.41049023250482
2024-01-04,7.41049023250482
2024-01-05,7.41049023250482
2024-01-08,7.702099570961066
2024-01-09,7.967123589714317
2024-01-10,8.069762182193308
2024-01-11,8.092513937697221
2024-01-12,8.03676295143394
2024-01-16,8.401537751746137
2024-01-17,8.291900539870154
2024-01-18,8.458506740902934
2024-01-19,8.872958983636273
2024-01-22,8.83268862142854
2024-01-23,8.818578332829198
2024-01-24,9.123402806778662
2024-01-25,9.076938479316626
2024-01-26,8.949298250381988
2024-01-29,9.116996680784005
2024-01-30,8.974681353132105
2024-01-31,8.729145112789743
2024-02-01,8.903847859445374
2024-02-02,9.155165606735679
2024-02-05,9.048733546427044
2024-02-06,8.875515936556711
2024-02-07,9.186787447864535
2024-02-08,9.222184965519613
2024-02-09,9.397478641770377
2024-02-12,9.264023094842205
2024-02-13,9.271170983256818
2024-02-14,9.638309960224927
2024-02-15,9.540469590181246
2024-02-16,9.43270105287034
2024-02-20,9.135422526442907
2024-02-21,8.745095048221081
2024-02-22,9.208910832970938
2024-02-23,9.067944779496045
2024-02-26,9.020853802419634
2024-02-27,9.051759053114118
2024-02-28,8.955807320205919
2024-02-29,9.458057272994361
2024-03-01,9.900106221010981
2024-03-04,10.13551375116517
2024-03-05,10.169875793330313
2024-03-06,10.466398368097618
2024-03-07,10.705729286553328
2024-03-08,10.316042685431245
2024-03-11,9.981443110185191
2024-03-12,10.436361014880253
2024-03-13,10.154953179398822
2024-03-14,9.992114595940507
2024-03-15,9.986196148540374
2024-03-18,10.02037933072058
2024-03-19,10.072538683237752
2024-03-20,10.126411881656125
2024-03-21,10.185208323042719
2024-03-22,10.343067928706759
2024-03-25,10.527020791595323
2024-03-26,10.282347274286593
2024-03-27,9.992576824746656
2024-03-28,10.024583598977939
2024-04-01,10.019160544119043
2024-04-02,10.010892408551747
2024-04-03,10.21193048745253
2024-04-04,10.036921135080846
2024-04-05,10.299574139827062
2024-04-08,10.487558070552694
2024-04-09,10.34227829943673
2024-04-10,10.329206479724892
2024-04-11,10.467186675782058
2024-04-12,10.27328847843565
2024-04-15,9.926095676544962
2024-04-16,9.998965608482523
2024-04-17,9.783814420786477
2024-04-18,9.545055431304029
2024-04-19,9.451097808925542
2024-04-22,9.510643584688104
2024-04-23,9.570797200730494
2024-04-24,9.601989963626782
2024-04-25,9.50635618081612
2024-04-26,9.988963755794943
2024-04-29,9.81246511692064
2024-04-30,9.711491463781023
2024-05-01,9.742113186696345
2024-05-02,9.82814296531829
2024-05-03,9.845663541070687
2024-05-06,9.871554057760134
2024-05-07,9.967492201711071
2024-05-08,9.911295528948775
2024-05-09,9.92653679145499
2024-05-10,9.886940559353182
2024-05-13,9.903682581431864
2024-05-14,9.937655977822308
2024-05-15,10.000416482665605
2024-05-16,10.049461011260602
2024-05-17,10.106417757354492
2024-05-20,10.137305710606721
2024-05-21,10.167902048524432
2024-05-22,10.12207022075453
2024-05-23,10.034211369911887
2024-05-24,10.075494586134948
2024-05-28,10.122679120429254
2024-05-29,10.105633000580825
2024-05-30,9.989444452916524
2024-05-31,10.001473979523709
2024-06-03,10.018700052324727
2024-06-04,10.038946162730465
2024-06-05,10.093132837654325
2024-06-06,10.132730508405176
2024-06-07,10.061624244545037
2024-06-10,10.086463835418309
2024-06-11,10.134797312168802
2024-06-12,10.173505194394087
2024-06-13,10.090431472559967
2024-06-14,10.140132478508347
2024-06-17,10.153247882612638
2024-06-18,10.084960715547773
2024-06-20,10.122614269960195
2024-06-21,10.212325082665721
2024-06-24,10.214075685425355
2024-06-25,10.36043786706131
2024-06-26,10.35495415647061
2024-06-27,10.401000437494897
2024-06-28,10.298867291398954
2024-07-01,10.32796850536524
2024-07-02,10.394603764997694
2024-07-03,10.415320915202688
2024-07-05,10.55788775084077
2024-07-08,10.511379713861533
2024-07-09,10.510006921270566
2024-07-10,10.577391704231214
2024-07-11,10.410124700875624
2024-07-12,10.394574754711986
2024-07-15,10.43833552454952
2024-07-16,10.35753845875698
2024-07-17,10.264065683878488
2024-07-18,10.264065683878488
2024-07-19,10.264065683878488
2024-07-22,10.299081804840679
2024-07-23,10.276222994951429
2024-07-24,9.749478728847148
2024-07-25,9.68916452185845
2024-07-26,9.68916452185845
2024-07-29,9.635593292564424
2024-07-30,9.578773214069312
2024-07-31,9.618603756505996
2024-08-01,9.569598559554654
2024-08-02,9.397836924168912
2024-08-05,9.27166223583122
2024-08-06,9.279167687623053
2024-08-07,9.183586468023849
2024-08-08,9.232129271547077
2024-08-09,9.173206111780189
2024-08-12,9.089073438107427
2024-08-13,9.195862490735234
2024-08-14,9.246989639123935
2024-08-15,9.269772881906356
2024-08-16,9.317868951064504
2024-08-19,9.370162685065424
2024-08-20,9.365676882424008
2024-08-21,9.393955709260815
2024-08-22,9.370464077034573
2024-08-23,9.384885646536485
2024-08-26,9.32171324241926
2024-08-27,9.32217670005096
2024-08-28,9.333416478939764
2024-08-29,9.409104613182445
2024-08-30,9.431752397300505
2024-09-03,9.379591563526581
2024-09-04,9.280925415535556
2024-09-05,9.269934536603941
2024-09-06,9.268408107338352
2024-09-09,9.31233850890386
2024-09-10,9.421817093459708
2024-09-11,9.44909930355098
2024-09-12,9.504521204876141
2024-09-13,9.475816434190374
2024-09-16,9.486274569045744
2024-09-17,9.456292840404803
2024-09-18,9.427438323755169
2024-09-19,9.45842985780363
2024-09-20,9.415397244363454
2024-09-23,9.425365533698141
2024-09-24,9.422802893511244
2024-09-25,9.360531796760343
2024-09-26,9.316396144543834
2024-09-27,9.3339608651199
2024-09-30,9.452146203652532
2024-10-01,9.458882179697822
2024-10-02,9.509481871168294
2024-10-03,9.634078396274742
2024-10-04,9.808185412512303
2024-10-07,9.813853294356855
2024-10-08,9.967990388719585
2024-10-09,9.99262867477833
2024-10-10,9.999955731361087
2024-10-11,10.08752169420949
2024-10-14,10.028476552771139
2024-10-15,9.997751869610049
2024-10-16,10.0644173552333
2024-10-17,10.015605588177593
2024-10-18,10.077014702953768
2024-10-21,10.561876877373622
2024-10-22,10.623155984700675
2024-10-23,10.61094297126553
2024-10-24,10.644088972117999
2024-10-25,10.746982552275721
2024-10-28,10.906050552691456
2024-10-29,11.106378133740387
2024-10-30,11.09128736864018
2024-10-31,11.025027317670885
2024-11-01,10.832134420238903
2024-11-04,10.680772800490812
2024-11-05,10.914313028376169
2024-11-06,11.082769641346948
2024-11-07,14.123937183568115
2024-11-08,15.671943124179737
2024-11-11,15.55528538515682
2024-11-12,15.567717912902124
2024-11-13,15.307782618247986
2024-11-14,15.32715158958396
2024-11-15,15.568350879148056
2024-11-18,15.54291894078964
2024-11-19,16.521031037354017
2024-11-20,16.602995506375827
2024-11-21,16.290190435933233
2024-11-22,17.068005183138325
2024-11-25,16.589387297193834
2024-11-26,17.04419853477424
2024-11-27,17.023522489019868
2024-11-29,17.4010523712711
2024-12-02,17.488983722069484
2024-12-03,18.784770234530207
2024-12-04,18.96177066499966
2024-12-05,19.31142886882409
2024-12-06,20.470615466181215
2024-12-09,18.01833807591751
2024-12-10,17.89910380678738
2024-12-11,18.022135578140134
2024-12-12,18.074537516423955
2024-12-13,18.292501049167498
2024-12-16,18.7210225418594
2024-12-17,18.965459359074874
2024-12-18,17.92636767398635
2024-12-19,18.04965170340114
2024-12-20,18.18528142080776
2024-12-23,18.123033272223537
2024-12-24,18.173135090071373
2024-12-26,18.283136562848224
2024-12-27,17.748231471015547
2024-12-30,17.60943032148569
2024-12-31,17.18946352609491
2025-01-02,17.62577986740976
2025-01-03,18.214841000992955
2025-01-06,18.02534045908432
2025-01-07,16.92272485110752
2025-01-08,16.866993023218612
2025-01-10,16.58646247113873
2025-01-13,16.62825239271395
2025-01-14,16.771652170555654
2025-01-15,17.165668937975752
2025-01-16,17.14435370867035
2025-01-17,17.67694900857053
2025-01-21,17.537784872269512
2025-01-22,18.200539972263083
2025-01-23,18.25252337515745
2025-01-24,18.193184726615158
2025-01-27,17.20937634050972
2025-01-28,17.673351079688974
2025-01-29,17.819635089038194
2025-01-30,17.79791526023007
2025-01-31,17.904683987400148
2025-02-03,17.99328830008306
2025-02-04,19.477059644584674
2025-02-05,19.02855079369423
2025-02-06,19.89315360242127
2025-02-07,19.741206908000812
2025-02-10,20.284753967069594
2025-02-11,19.82546461843103
2025-02-12,20.21835354000478
2025-02-13,22.63724919454126
2025-02-14,23.71189444267381
2025-02-18,23.63998127627759
2025-02-19,22.906920228046292
2025-02-20,20.740790182244517
2025-02-21,20.740790182244517
2025-02-24,20.72303903003659
2025-02-25,20.30266844741361
2025-02-26,20.118566476777183
2025-02-27,20.118566476777183
2025-02-28,20.118566476777183
2025-03-03,20.139415465984726
2025-03-04,19.939489327588646
2025-03-05,19.908842207871665
2025-03-06,19.935108460479363
2025-03-07,19.99508464165165
2025-03-10,19.977135563301168
2025-03-11,19.977135563301168
2025-03-12,19.977135563301168
2025-03-13,19.977135563301168
2025-03-14,19.977135563301168
2025-03-17,19.977135563301168
2025-03-18,19.977135563301168
2025-03-19,19.977135563301168
2025-03-20,19.977135563301168
2025-03-21,19.977135563301168
2025-03-24,19.977135563301168
2025-03-25,19.977135563301168
2025-03-26,19.977135563301168
2025-03-27,19.977135563301168
2025-03-28,19.977135563301168
2025-03-31,19.977135563301168
2025-04-01,19.977135563301168
2025-04-02,19.977135563301168
2025-04-03,19.977135563301168
2025-04-04,19.977135563301168
2025-04-07,19.977135563301168
2025-04-08,19.977135563301168
2025-04-09,19.977135563301168
2025-04-10,19.977135563301168
2025-04-11,19.977135563301168
2025-04-14,19.977135563301168
2025-04-15,19.977135563301168
2025-04-16,19.977135563301168
2025-04-17,19.977135563301168
2025-04-21,19.977135563301168
2025-04-22,19.977135563301168
2025-04-23,19.977135563301168
2025-04-24,19.977135563301168
2025-04-25,19.977135563301168
2025-04-28,19.977135563301168
2025-04-29,19.977135563301168
2025-04-30,19.977135563301168
2025-05-01,19.977135563301168
2025-05-02,19.977135563301168
2025-05-05,19.977135563301168
2025-05-06,19.977135563301168
2025-05-07,19.977135563301168
2025-05-08,19.977135563301168
2025-05-09,19.977135563301168
2025-05-12,19.977135563301168
2025-05-13,19.977135563301168
2025-05-14,19.977135563301168
2025-05-15,19.977135563301168
2025-05-16,19.977135563301168
2025-05-19,20.121343069726187
2025-05-20,20.065411256168705
2025-05-21,19.752458822211672
2025-05-22,19.90508907679847
2025-05-23,19.605865381695722
2025-05-27,19.795940935173167
2025-05-28,19.80827122036478
2025-05-29,19.672687434495934
2025-05-30,20.49940991237674
2025-06-02,20.637208119184315
2025-06-03,20.76193142532668
2025-06-04,20.399045165382162
2025-06-05,19.620310050613746
2025-06-06,19.682099675330633
2025-06-09,19.613887186028784
2025-06-10,19.67419064669965
2025-06-11,19.95667675734215
2025-06-12,19.793425682833586
2025-06-13,19.591369887072698
2025-06-16,20.05836350896958
2025-06-17,19.56026713578224
2025-06-18,19.528072910244937
2025-06-20,19.315030151486134
2025-06-23,19.744891456554377
2025-06-24,19.954987256358443
2025-06-25,20.025367632354257
2025-06-26,20.184921390124344
2025-06-27,19.143319597968265
2025-06-30,19.552274294627377
2025-07-01,18.91849022548451
2025-07-02,19.08910185756737
2025-07-03,19.418122102313532
2025-07-07,19.818058130322903
2025-07-08,19.782528963075595
2025-07-09,20.16810210054497
2025-07-10,19.558785974989746
2025-07-11,19.404747609766034
2025-07-14,19.96344447410256
2025-07-15,20.116421501054543
2025-07-16,20.524741240855526
2025-07-17,21.03194601530854
2025-07-18,20.878903399603203
2025-07-21,20.67355257434543
2025-07-22,20.265820524368735
2025-07-23,20.843662380544558
2025-07-24,20.89460465703577
2025-07-25,21.290244350118485
2025-07-28,21.30713197096768
2025-07-29,21.25516373933518
2025-07-30,21.46666101973611
2025-07-31,21.5566913640561
2025-08-01,20.902953297090797
2025-08-04,21.698339525802076
2025-08-05,22.81809388950895
2025-08-06,23.34684074598667
2025-08-07,23.313697528645086
2025-08-08,23.71801266940372
2025-08-11,23.467191042160668
2025-08-12,23.852047532710394
2025-08-13,23.305302717006793
2025-08-14,23.064275061237062
2025-08-15,22.872022459372335
2025-08-18,22.64816337280564
2025-08-19,21.718927589045588
2025-08-20,21.718927589045588
2025-08-21,21.718927589045588
2025-08-22,21.718927589045588
2025-08-25,21.95796375336461
2025-08-26,22.442633106604212
2025-08-27,22.210963299036237
2025-08-28,22.851520661891616
2025-08-29,22.704195759207153
2025-09-02,22.60881440898732
2025-09-03,22.83846740787794
2025-09-04,23.530094237774424
2025-09-05,23.41896401885321
2025-09-08,24.77357361487534
2025-09-09,24.833592869048566
2025-09-10,24.958662315734383
2025-09-11,25.28035036215772
2025-09-12,25.416702195330558
2025-09-15,26.039422453622542
2025-09-16,26.249873388798534
2025-09-17,26.371332374591162
2025-09-18,27.06497188633455
2025-09-19,27.849098256016532
2025-09-22,27.993623856233192
2025-09-23,27.629074428315093
2025-09-24,27.315046258515316
2025-09-25,26.855531171701124
2025-09-26,27.59421180359953
2025-09-29,28.629591588751786
2025-09-30,28.48369876213082
2025-10-01,28.8939448793264
2025-10-02,28.825815592475454
2025-10-03,28.653350964939655
2025-10-06,27.75875378703669
2025-10-07,27.94479889834163
2025-10-08,28.028199401464576
2025-10-09,28.146883415071258
2025-10-10,27.68818431879955
2025-10-13,27.72299502644256
2025-10-14,27.318051841219233
2025-10-15,29.096141190129945
2025-10-16,28.742499017638533
2025-10-17,28.70390549634006
2025-10-20,29.524195961006203
2025-10-21,29.37142010394687
2025-10-22,28.49570955718886
2025-10-23,29.19297013361751
2025-10-24,30.359644447860877
2025-10-27,31.188534716662527
2025-10-28,31.7224134494238
2025-10-29,32.05913043047252
2025-10-30,31.083498835031975
2025-10-31,31.109508243900255
2025-11-03,31.174444022395587
2025-11-04,29.7780993232963
2025-11-05,30.60628369629175
2025-11-06,29.068380460710376
2025-11-07,28.947076605934193
2025-11-10,29.364183640688655
2025-11-11,28.463501991517145
2025-11-12,28.689894416970507
2025-11-13,27.694071575189206
2025-11-14,28.27588462541589
2025-11-17,27.781952102052458
2025-11-18,26.954741994741454
2025-11-19,26.334938020704477
2025-11-20,26.171226856421505
2025-11-21,26.171226856421505
2025-11-24,26.348581375451978
2025-11-25,26.67377571511115
2025-11-26,26.577024735069173
2025-11-28,26.543761537709848
2025-12-01,26.17323579276347
2025-12-02,26.1226765448166
2025-12-03,26.04500929507921
2025-12-04,25.99524090903848
2025-12-05,26.033724764508094
2025-12-08,25.800440813625258
2025-12-09,25.871144394008503
2025-12-10,25.937008960737337
2025-12-11,25.773294782444687
2025-12-12,25.70722071791355
2025-12-15,25.63191981902022
2025-12-16,25.53781699466083
2025-12-17,25.173735836139933
2025-12-18,25.301542143251027
2025-12-19,25.372654426162118
2025-12-22,25.410399103157996
2025-12-23,25.425473206397193
2025-12-24,25.918370779095863
2025-12-26,25.858692962105074
2025-12-29,26.33350035554345
2025-12-30,26.178061400092908
2025-12-31,25.772571652117353
2026-01-02,27.445623044034768
2026-01-05,27.672508264125273
2026-01-06,29.399431285517522
2026-01-07,29.1275509851681
2026-01-08,28.292163989850067
2026-01-09,29.602258426575677
2026-01-12,29.78628608225623
2026-01-13,29.37174259368921
2026-01-14,29.078678225649128
2026-01-15,29.649880896886053
2026-01-16,31.047170964304758
2026-01-20,30.936283148921035
2026-01-21,32.21847537034478
2026-01-22,32.451117801224726
2026-01-23,32.63422553670715
2026-01-26,32.07630729565925
2026-01-27,33.37460363820198
2026-01-28,34.627070985564984
2026-01-29,34.762737335396395
2026-01-30,33.334494817826226
2026-02-02,34.53913131847122
2026-02-03,33.4554059561393
2026-02-04,30.946779030348132
2026-02-05,30.946779030348132
2026-02-06,30.946779030348132
2026-02-09,31.013007721025467
2026-02-10,30.714497446434336
2026-02-11,31.755766231570078
2026-02-12,31.700148161979932
2026-02-13,31.796443412305834
2026-02-17,31.556697131974758
2026-02-18,32.13929419935093
2026-02-19,31.97491713146824
2026-02-20,32.44919748567536
2026-02-23,32.21334826988857
2026-02-24,32.220083213503216
2026-02-25,32.620116610403784
2026-02-26,31.995295285409533
2026-02-27,31.755468039031157
2026-03-02,31.663932038661216
2026-03-03,30.61485613152242
2026-03-04,31.04346385493186
2026-03-05,30.967863440246525
2026-03-06,30.424227928429563
2026-03-09,30.96050278712101
2026-03-10,30.931302091181045
2026-03-11,31.144995993161068
2026-03-12,30.291330110926555
2026-03-13,30.131855084850514
2026-03-16,29.852284287467228
2026-03-17,30.149537493096226
2026-03-18,29.56030946544039
2026-03-19,29.265393220592745
2026-03-20,28.904433971591946
2026-03-23,28.95932938221089
2026-03-24,28.95932938221089
2026-03-25,28.95932938221089
2026-03-26,28.95932938221089
2026-03-27,28.95932938221089
2026-03-30,28.95932938221089
2026-03-31,28.95932938221089
2026-04-01,28.95932938221089
2026-04-02,28.95932938221089
2026-04-06,28.95932938221089
2026-04-07,28.95932938221089
2026-04-08,28.95932938221089
2026-04-09,28.95932938221089
2026-04-10,28.95932938221089
2026-04-13,29.806102623952697
2026-04-14,29.768936660175797
2026-04-15,30.11786095930857
2026-04-16,30.809833849610897
2026-04-17,31.51393161094446
2026-04-20,31.769875983104853
2026-04-21,32.286867671698836
2026-04-22,32.7258897816594
2026-04-23,33.99551804387971
2026-04-24,37.52624140188885
2026-04-27,37.41717840529519
2026-04-28,36.752918880487144
2026-04-29,39.50725133586364
2026-04-30,40.40025500322176
2026-05-01,41.57490958249208
2026-05-04,40.53698447214138
2026-05-05,43.98461383112503
2026-05-06,45.495132819452515
2026-05-07,43.35322417770467
2026-05-08,48.04353440366344
2026-05-11,49.17519238977355
2026-05-12,46.41265243363239
2026-05-13,47.8365689164822
2026-05-14,47.33708743690133
2026-05-15,45.055643621505
2026-05-18,43.71709030388178
2026-05-19,44.16642007483549
2026-05-20,47.11945610954632
2026-05-21,47.65953189573925
2026-05-22,49.23914079487877
2026-05-26,52.49943724001448
2026-05-27,50.67302339919951
