Date,Value
2018-01-02,1.0
2018-01-03,1.0
2018-01-04,1.0
2018-01-05,1.0
2018-01-08,1.0243276923826679
2018-01-09,1.022997488831695
2018-01-10,1.0174173973635758
2018-01-11,1.0211812661577055
2018-01-12,1.0218670095042373
2018-01-16,1.0110189039761224
2018-01-17,1.0082068621852476
2018-01-18,1.0097510140286383
2018-01-19,1.0154539088133494
2018-01-22,1.0384294248288284
2018-01-23,1.056559159616182
2018-01-24,1.0549172841385075
2018-01-25,1.0694383991263074
2018-01-26,1.1117660361505435
2018-01-29,1.1304885180207598
2018-01-30,1.1240345013358874
2018-01-31,1.1289740584250365
2018-02-01,1.1064544286136968
2018-02-02,1.1064544286136968
2018-02-05,1.089818978951778
2018-02-06,1.1007526134832644
2018-02-07,1.0942637827904562
2018-02-08,1.0803380499440207
2018-02-09,1.0703059110824968
2018-02-12,1.0893547937030164
2018-02-13,1.08560206267822
2018-02-14,1.1187853918799562
2018-02-15,1.134699920682676
2018-02-16,1.1319384493926639
2018-02-20,1.1433932830695879
2018-02-21,1.1245248653124018
2018-02-22,1.1242481843574899
2018-02-23,1.138608564001417
2018-02-26,1.1457092459886073
2018-02-27,1.1449856599723274
2018-02-28,1.1469953240528281
2018-03-01,1.1429909579381121
2018-03-02,1.1540279525252233
2018-03-05,1.1599048769215514
2018-03-06,1.1647352468832668
2018-03-07,1.1694568222984958
2018-03-08,1.1775727128625215
2018-03-09,1.181380438987791
2018-03-12,1.1723974436438975
2018-03-13,1.161051027672386
2018-03-14,1.157139988497391
2018-03-15,1.1316805929653095
2018-03-16,1.1193215600404032
2018-03-19,1.1060883830195833
2018-03-20,1.1096337238464495
2018-03-21,1.1087341670369455
2018-03-22,1.1001089383909768
2018-03-23,1.0950290505718743
2018-03-26,1.1159482552908626
2018-03-27,1.0866698459272703
2018-03-28,1.0696928819504663
2018-03-29,1.0696928819504663
2018-04-02,1.0556294877367307
2018-04-03,1.0662094076585484
2018-04-04,1.0746879820227673
2018-04-05,1.08734551868127
2018-04-06,1.0753154057279268
2018-04-09,1.0704500537120483
2018-04-10,1.0777140710533994
2018-04-11,1.0770871035310585
2018-04-12,1.0906545677386599
2018-04-13,1.0815986411252327
2018-04-16,1.0868294321389436
2018-04-17,1.0970070335917472
2018-04-18,1.0982163104285525
2018-04-19,1.0903562022622793
2018-04-20,1.0868606949674426
2018-04-23,1.084933236974204
2018-04-24,1.0852580886739736
2018-04-25,1.0838260000822393
2018-04-26,1.0971616843660987
2018-04-27,1.093663507839707
2018-04-30,1.0883423547152287
2018-05-01,1.0907348393855498
2018-05-02,1.094553896864823
2018-05-03,1.0896946449260174
2018-05-04,1.0925775171880576
2018-05-07,1.1045601023853182
2018-05-08,1.1104752061217935
2018-05-09,1.1234184440535397
2018-05-10,1.1211588054713162
2018-05-11,1.1105023032024883
2018-05-14,1.1107362810193369
2018-05-15,1.109837424659501
2018-05-16,1.1096829012327485
2018-05-17,1.1049918588976166
2018-05-18,1.105795130437266
2018-05-21,1.1261355111335019
2018-05-22,1.1222737332475756
2018-05-23,1.148535313282737
2018-05-24,1.1594675004365467
2018-05-25,1.1630746763370632
2018-05-29,1.158283459226133
2018-05-30,1.1674633198355973
2018-05-31,1.1618182838581297
2018-06-01,1.1776102072466157
2018-06-04,1.172040523915422
2018-06-05,1.1788217845066493
2018-06-06,1.1816260013443138
2018-06-07,1.1713437000518467
2018-06-08,1.1699330661084462
2018-06-11,1.1904756676486323
2018-06-12,1.1989160813699686
2018-06-13,1.2434944541271662
2018-06-14,1.262922670185926
2018-06-15,1.2647067189307832
2018-06-18,1.2902256188788321
2018-06-19,1.2759364715192092
2018-06-20,1.2697095681976585
2018-06-21,1.23784245828997
2018-06-22,1.2433368032435586
2018-06-25,1.2255343751393368
2018-06-26,1.2220979048747245
2018-06-27,1.2174005126344487
2018-06-28,1.2174005126344487
2018-06-29,1.2174005126344487
2018-07-02,1.2063207701932768
2018-07-03,1.1866759552987878
2018-07-05,1.1928901035004662
2018-07-06,1.2006755298643523
2018-07-09,1.2048121628106974
2018-07-10,1.2000109255027205
2018-07-11,1.19229719565002
2018-07-12,1.1986897385296553
2018-07-13,1.17425490665174
2018-07-16,1.189130529799664
2018-07-17,1.1877219318409762
2018-07-18,1.1870006030403677
2018-07-19,1.1819513702258075
2018-07-20,1.1743776241885184
2018-07-23,1.1638603201716693
2018-07-24,1.1309626079400337
2018-07-25,1.1444948128685746
2018-07-26,1.2254931199916341
2018-07-27,1.2325761603165706
2018-07-30,1.23234450429205
2018-07-31,1.2156782440326588
2018-08-01,1.220683940190769
2018-08-02,1.2077119752719865
2018-08-03,1.2077119752719865
2018-08-06,1.218920261854083
2018-08-07,1.2251756704621102
2018-08-08,1.192893030305331
2018-08-09,1.1775489007655078
2018-08-10,1.1762701928177806
2018-08-13,1.1904897516583313
2018-08-14,1.210690999566117
2018-08-15,1.1956626829347379
2018-08-16,1.1873007370175692
2018-08-17,1.2074092674519692
2018-08-20,1.2163440090398017
2018-08-21,1.2296812503347163
2018-08-22,1.2586394991399683
2018-08-23,1.3190699478962924
2018-08-24,1.350708510456018
2018-08-27,1.3735011276601083
2018-08-28,1.385641326791661
2018-08-29,1.4159106556684438
2018-08-30,1.4040272272385863
2018-08-31,1.416589007245352
2018-09-04,1.4265319304653157
2018-09-05,1.417641963164391
2018-09-06,1.4254976565054682
2018-09-07,1.4209798022809919
2018-09-10,1.4422772013609482
2018-09-11,1.4426441857993249
2018-09-12,1.455404161723494
2018-09-13,1.445282621198378
2018-09-14,1.445282621198378
2018-09-17,1.4337020303947507
2018-09-18,1.4495231771502124
2018-09-19,1.443883023146348
2018-09-20,1.4428970396990384
2018-09-21,1.4346959265138846
2018-09-24,1.4382793294591882
2018-09-25,1.4419357375987323
2018-09-26,1.4343124168168497
2018-09-27,1.4210133340539932
2018-09-28,1.427728852359221
2018-10-01,1.4186937318627433
2018-10-02,1.4023491319299546
2018-10-03,1.3989214162403567
2018-10-04,1.3976661073284917
2018-10-05,1.3911362657213187
2018-10-08,1.39067481780818
2018-10-09,1.3953089942661108
2018-10-10,1.3693354651586223
2018-10-11,1.3693354651586223
2018-10-12,1.3693354651586223
2018-10-15,1.3716432039790414
2018-10-16,1.3780806275527433
2018-10-17,1.38591470898701
2018-10-18,1.3831211737561873
2018-10-19,1.3832426174938517
2018-10-22,1.38398875442254
2018-10-23,1.3857896992053371
2018-10-24,1.3803814100453031
2018-10-25,1.3916090161184957
2018-10-26,1.3853505110399638
2018-10-29,1.391082340241582
2018-10-30,1.391082340241582
2018-10-31,1.391082340241582
2018-11-01,1.391082340241582
2018-11-02,1.391082340241582
2018-11-05,1.391082340241582
2018-11-06,1.391082340241582
2018-11-07,1.391082340241582
2018-11-08,1.391082340241582
2018-11-09,1.391082340241582
2018-11-12,1.391082340241582
2018-11-13,1.391082340241582
2018-11-14,1.391082340241582
2018-11-15,1.391082340241582
2018-11-16,1.391082340241582
2018-11-19,1.391082340241582
2018-11-20,1.391082340241582
2018-11-21,1.391082340241582
2018-11-23,1.391082340241582
2018-11-26,1.391082340241582
2018-11-27,1.391082340241582
2018-11-28,1.391082340241582
2018-11-29,1.391082340241582
2018-11-30,1.391082340241582
2018-12-03,1.391082340241582
2018-12-04,1.391082340241582
2018-12-06,1.391082340241582
2018-12-07,1.391082340241582
2018-12-10,1.391082340241582
2018-12-11,1.391082340241582
2018-12-12,1.391082340241582
2018-12-13,1.391082340241582
2018-12-14,1.391082340241582
2018-12-17,1.391082340241582
2018-12-18,1.391082340241582
2018-12-19,1.391082340241582
2018-12-20,1.391082340241582
2018-12-21,1.391082340241582
2018-12-24,1.391082340241582
2018-12-26,1.391082340241582
2018-12-27,1.391082340241582
2018-12-28,1.391082340241582
2018-12-31,1.391082340241582
2019-01-02,1.391082340241582
2019-01-03,1.391082340241582
2019-01-04,1.391082340241582
2019-01-07,1.391082340241582
2019-01-08,1.391082340241582
2019-01-09,1.391082340241582
2019-01-10,1.391082340241582
2019-01-11,1.391082340241582
2019-01-14,1.391082340241582
2019-01-15,1.391082340241582
2019-01-16,1.391082340241582
2019-01-17,1.391082340241582
2019-01-18,1.391082340241582
2019-01-22,1.391082340241582
2019-01-23,1.391082340241582
2019-01-24,1.391082340241582
2019-01-25,1.391082340241582
2019-01-28,1.391082340241582
2019-01-29,1.391082340241582
2019-01-30,1.391082340241582
2019-01-31,1.391082340241582
2019-02-01,1.391082340241582
2019-02-04,1.391082340241582
2019-02-05,1.391082340241582
2019-02-06,1.391082340241582
2019-02-07,1.391082340241582
2019-02-08,1.391082340241582
2019-02-11,1.391082340241582
2019-02-12,1.391082340241582
2019-02-13,1.391082340241582
2019-02-14,1.391082340241582
2019-02-15,1.391082340241582
2019-02-19,1.3860280434600192
2019-02-20,1.3965880688522092
2019-02-21,1.4017072008961327
2019-02-22,1.424720716823781
2019-02-25,1.438027620771818
2019-02-26,1.3819338199249187
2019-02-27,1.3767058122798055
2019-02-28,1.3724387277334968
2019-03-01,1.3749756999422524
2019-03-04,1.3495834931350064
2019-03-05,1.3276421801648135
2019-03-06,1.326266803687278
2019-03-07,1.3366060787360157
2019-03-08,1.3520581916312695
2019-03-11,1.3838713422933857
2019-03-12,1.387393529108095
2019-03-13,1.4004596654556378
2019-03-14,1.4247740017235269
2019-03-15,1.4276144623780371
2019-03-18,1.457048665158426
2019-03-19,1.468122073710755
2019-03-20,1.4882981552045655
2019-03-21,1.5706728341414506
2019-03-22,1.5168109360915074
2019-03-25,1.4909876956291686
2019-03-26,1.4873734756374033
2019-03-27,1.466692165258551
2019-03-28,1.4667423350990674
2019-03-29,1.470958976152911
2019-04-01,1.4628005373693114
2019-04-02,1.4482170284766207
2019-04-03,1.4419225697525748
2019-04-04,1.3527760909028426
2019-04-05,1.3527760909028426
2019-04-08,1.339171408188352
2019-04-09,1.3261161456979034
2019-04-10,1.3763961793487467
2019-04-11,1.376105355417262
2019-04-12,1.3730049023535025
2019-04-15,1.370678350299559
2019-04-16,1.351463451995345
2019-04-17,1.3244851827301045
2019-04-18,1.3289645862670056
2019-04-22,1.3585462454833783
2019-04-23,1.3930908780726015
2019-04-24,1.4055576422627378
2019-04-25,1.372062793547977
2019-04-26,1.3903037717327573
2019-04-29,1.390896658115062
2019-04-30,1.3801691987984839
2019-05-01,1.362832955635141
2019-05-02,1.404127456107801
2019-05-03,1.4203542476658066
2019-05-06,1.3928460009917882
2019-05-07,1.3495681040659109
2019-05-08,1.354217668930916
2019-05-09,1.345376349506675
2019-05-10,1.3630581558728467
2019-05-13,1.3251237422588584
2019-05-14,1.3341382012004979
2019-05-15,1.3346614638416638
2019-05-16,1.3207774025733712
2019-05-17,1.3155054853348902
2019-05-20,1.2969530729301197
2019-05-21,1.294647420674765
2019-05-22,1.2938090191180738
2019-05-23,1.2835803538150004
2019-05-24,1.284879917805732
2019-05-28,1.2893671429002036
2019-05-29,1.2618390082321103
2019-05-30,1.272081480431038
2019-05-31,1.2481714643852584
2019-06-03,1.2465880916540968
2019-06-04,1.2465880916540968
2019-06-05,1.2465880916540968
2019-06-06,1.2465880916540968
2019-06-07,1.2465880916540968
2019-06-10,1.2420527232184184
2019-06-11,1.208254309879613
2019-06-12,1.2270737276769288
2019-06-13,1.223038495340972
2019-06-14,1.2146167486024106
2019-06-17,1.21353977963897
2019-06-18,1.2152626306282812
2019-06-19,1.2529018818633317
2019-06-20,1.25192500005184
2019-06-21,1.2379224201128995
2019-06-24,1.209579029451128
2019-06-25,1.1782040953710715
2019-06-26,1.1538715735244853
2019-06-27,1.155288948533007
2019-06-28,1.1563642252842208
2019-07-01,1.1566418534774945
2019-07-02,1.1773112117231408
2019-07-03,1.186182868366332
2019-07-05,1.1914435905708323
2019-07-08,1.196590374629202
2019-07-09,1.2087152587704098
2019-07-10,1.1962742053730182
2019-07-11,1.1899571002968696
2019-07-12,1.1886409631819002
2019-07-15,1.2143192300772978
2019-07-16,1.1914663479869185
2019-07-17,1.203582384611214
2019-07-18,1.2306439806986282
2019-07-19,1.2070967331922735
2019-07-22,1.2261258748703283
2019-07-23,1.2154400696477299
2019-07-24,1.23887255568431
2019-07-25,1.2383330896741809
2019-07-26,1.2462582364183512
2019-07-29,1.2146483304399263
2019-07-30,1.1857334844194298
2019-07-31,1.1801010898603057
2019-08-01,1.2273717073192243
2019-08-02,1.199321983823351
2019-08-05,1.1684688805328567
2019-08-06,1.1735285798074144
2019-08-07,1.1742719603100524
2019-08-08,1.1775235532529067
2019-08-09,1.177616499841812
2019-08-12,1.173095469698579
2019-08-13,1.1804248542797702
2019-08-14,1.1619671358538253
2019-08-15,1.1624703490630872
2019-08-16,1.1716807038480959
2019-08-19,1.1745896643199436
2019-08-20,1.1819263068277204
2019-08-21,1.1959673472889845
2019-08-22,1.1954603824286931
2019-08-23,1.1852787085870338
2019-08-26,1.2014354501832303
2019-08-27,1.2090018196278187
2019-08-28,1.2022714433622643
2019-08-29,1.2017470502819354
2019-08-30,1.183867892653112
2019-09-03,1.1844488541902884
2019-09-04,1.1783326035985022
2019-09-05,1.1831326091424936
2019-09-06,1.1736558929139063
2019-09-09,1.1520301382845763
2019-09-10,1.145826837408902
2019-09-11,1.1587690992862743
2019-09-12,1.1582940942464728
2019-09-13,1.159006416039636
2019-09-16,1.1639884157335654
2019-09-17,1.1774835363521237
2019-09-18,1.1934399829888735
2019-09-19,1.1827454046402908
2019-09-20,1.1684411052782067
2019-09-23,1.1814868667667384
2019-09-24,1.1644834399709536
2019-09-25,1.191261946563758
2019-09-26,1.1860460533645334
2019-09-27,1.1491913980478108
2019-09-30,1.1545703262906484
2019-10-01,1.149304799100419
2019-10-02,1.134122951581426
2019-10-03,1.142622807526534
2019-10-04,1.1635226694838787
2019-10-07,1.1618791305215572
2019-10-08,1.1317535091150224
2019-10-09,1.149696798229067
2019-10-10,1.1512652128670136
2019-10-11,1.1649685297605215
2019-10-14,1.1593647352045946
2019-10-15,1.1799905565329218
2019-10-16,1.1598642547459013
2019-10-17,1.1685772551347267
2019-10-18,1.1587221963790015
2019-10-21,1.180901594363749
2019-10-22,1.172010399706944
2019-10-23,1.1544224335350053
2019-10-24,1.232775288493317
2019-10-25,1.2428708074870718
2019-10-28,1.275122475545865
2019-10-29,1.2522289339439148
2019-10-30,1.2636493085286176
2019-10-31,1.2195700559377214
2019-11-01,1.2195700559377214
2019-11-04,1.2206041402791978
2019-11-05,1.219793328907516
2019-11-06,1.2326103788599987
2019-11-07,1.2469174736147628
2019-11-08,1.2469024929822126
2019-11-11,1.2592094929789441
2019-11-12,1.2658626231214893
2019-11-13,1.2637987278075404
2019-11-14,1.2758024331986695
2019-11-15,1.2999723090218374
2019-11-18,1.2936152146540998
2019-11-19,1.299139168195955
2019-11-20,1.279271034210159
2019-11-21,1.2620476960755953
2019-11-22,1.225246202384949
2019-11-25,1.2155457428833822
2019-11-26,1.1899363305905188
2019-11-27,1.2006670603429221
2019-11-29,1.194232671272281
2019-12-02,1.1964902583500394
2019-12-03,1.2014932721720202
2019-12-04,1.2081055187455454
2019-12-05,1.2022871585810986
2019-12-06,1.2122636148077501
2019-12-09,1.2078833117250358
2019-12-10,1.2323577440825644
2019-12-11,1.2396908406175564
2019-12-12,1.2525751190716385
2019-12-13,1.2502799565548153
2019-12-16,1.3050046547240477
2019-12-17,1.2890304582953167
2019-12-18,1.3179881944304384
2019-12-19,1.3393459882152783
2019-12-20,1.3472166449334995
2019-12-23,1.3691025604300617
2019-12-24,1.3836785699066418
2019-12-26,1.3910542728575743
2019-12-27,1.3874931358580311
2019-12-30,1.363739183057415
2019-12-31,1.36670369095962
2020-01-02,1.3631562128782333
2020-01-03,1.3561779942390335
2020-01-06,1.3656936137566662
2020-01-07,1.3660339652974995
2020-01-08,1.3755820861941856
2020-01-09,1.3934103550448271
2020-01-10,1.378695543559013
2020-01-13,1.3827460323726912
2020-01-14,1.3896022438068925
2020-01-15,1.3996108019744993
2020-01-16,1.4081916295403878
2020-01-17,1.425169473487602
2020-01-21,1.4022257072940116
2020-01-22,1.4075855625792324
2020-01-23,1.4115349013127085
2020-01-24,1.392352306654617
2020-01-27,1.3700081377174922
2020-01-28,1.3756014568711226
2020-01-29,1.3844764705751165
2020-01-30,1.4221558759202058
2020-01-31,1.4283034847159093
2020-02-03,1.4812319202836948
2020-02-04,1.505991016262398
2020-02-05,1.479475545868889
2020-02-06,1.479475545868889
2020-02-07,1.479475545868889
2020-02-10,1.5213227456024607
2020-02-11,1.5239615712500492
2020-02-12,1.6201940055811466
2020-02-13,1.6379828136846868
2020-02-14,1.6406135377672126
2020-02-18,1.678897509541504
2020-02-19,1.752786666052298
2020-02-20,1.735372410863733
2020-02-21,1.6813465808425123
2020-02-24,1.621103859435193
2020-02-25,1.600505478037919
2020-02-26,1.6044738190609233
2020-02-27,1.5768888264653156
2020-02-28,1.5768888264653156
2020-03-02,1.5937160542602191
2020-03-03,1.575875440947295
2020-03-04,1.6306712086631148
2020-03-05,1.6099932589374961
2020-03-06,1.6052171300431763
2020-03-09,1.5436484631262735
2020-03-10,1.5436484631262735
2020-03-11,1.5436484631262735
2020-03-12,1.5436484631262735
2020-03-13,1.5436484631262735
2020-03-16,1.5436484631262735
2020-03-17,1.5436484631262735
2020-03-18,1.5436484631262735
2020-03-19,1.5436484631262735
2020-03-20,1.5436484631262735
2020-03-23,1.5436484631262735
2020-03-24,1.5436484631262735
2020-03-25,1.5436484631262735
2020-03-26,1.5436484631262735
2020-03-27,1.5436484631262735
2020-03-30,1.5436484631262735
2020-03-31,1.5436484631262735
2020-04-01,1.5436484631262735
2020-04-02,1.5436484631262735
2020-04-03,1.5436484631262735
2020-04-06,1.5436484631262735
2020-04-07,1.5436484631262735
2020-04-08,1.5436484631262735
2020-04-09,1.5436484631262735
2020-04-13,1.5317085741410916
2020-04-14,1.6118895450168886
2020-04-15,1.6662266846191387
2020-04-16,1.6928613917211037
2020-04-17,1.6814506055765939
2020-04-20,1.7189446003392814
2020-04-21,1.6497082735948618
2020-04-22,1.6497082735948618
2020-04-23,1.6497082735948618
2020-04-24,1.6497082735948618
2020-04-27,1.5844641256979206
2020-04-28,1.5630778357569524
2020-04-29,1.5527200578573104
2020-04-30,1.5357507371645482
2020-05-01,1.5125337993435286
2020-05-04,1.588197414826233
2020-05-05,1.6682184831802163
2020-05-06,1.697669726197186
2020-05-07,1.6932345286238242
2020-05-08,1.681127692898698
2020-05-11,1.747808145461243
2020-05-12,1.714288474466408
2020-05-13,1.7571038357069715
2020-05-14,1.748118971193025
2020-05-15,1.7722470305283349
2020-05-18,1.7128692022064194
2020-05-19,1.7277311836278573
2020-05-20,1.7861819052875254
2020-05-21,1.7939439013084286
2020-05-22,1.8350091054807671
2020-05-26,1.7458943324243417
2020-05-27,1.7286169534302076
2020-05-28,1.7286169534302076
2020-05-29,1.7286169534302076
2020-06-01,1.7853916270069896
2020-06-02,1.7723337583645247
2020-06-03,1.768710805186989
2020-06-04,1.7161774658405031
2020-06-05,1.6484681944503545
2020-06-08,1.6530699471566526
2020-06-09,1.6447667658264806
2020-06-10,1.6713529514792427
2020-06-11,1.6116291599916845
2020-06-12,1.604332927098524
2020-06-15,1.6715316052893843
2020-06-16,1.6974316274878507
2020-06-17,1.6823946134108132
2020-06-18,1.6966055285605854
2020-06-19,1.6800571825478325
2020-06-22,1.7316782385894751
2020-06-23,1.716929969247989
2020-06-24,1.6948991882361608
2020-06-25,1.7181458297101262
2020-06-26,1.6424575252138958
2020-06-29,1.6222076821117277
2020-06-30,1.6571920565336185
2020-07-01,1.641099072830766
2020-07-02,1.656258919769959
2020-07-06,1.6305543327793786
2020-07-07,1.6354204606470424
2020-07-08,1.6879657668225898
2020-07-09,1.7186382538248617
2020-07-10,1.7179850832783419
2020-07-13,1.6119490947190118
2020-07-14,1.6018973277464867
2020-07-15,1.6018973277464867
2020-07-16,1.6018973277464867
2020-07-17,1.6018973277464867
2020-07-20,1.7020122977750605
2020-07-21,1.649776872728225
2020-07-22,1.6513507577554205
2020-07-23,1.556634958237501
2020-07-24,1.553188412981376
2020-07-27,1.6373640509002194
2020-07-28,1.6070202947011016
2020-07-29,1.6361379865410326
2020-07-30,1.6536529920487921
2020-07-31,1.6326847150049981
2020-08-03,1.6786876532367438
2020-08-04,1.666627499152706
2020-08-05,1.6664544432777721
2020-08-06,1.6144326791044195
2020-08-07,1.5943208851736084
2020-08-10,1.5494029426911426
2020-08-11,1.4751461926574962
2020-08-12,1.6271540260341517
2020-08-13,1.6560810252202525
2020-08-14,1.667234078373017
2020-08-17,1.7155485467157643
2020-08-18,1.708436715603935
2020-08-19,1.7031027351792258
2020-08-20,1.718823741490145
2020-08-21,1.7285557998153704
2020-08-24,1.7025760708288522
2020-08-25,1.7262141501164483
2020-08-26,1.734571543498733
2020-08-27,1.7035994081280719
2020-08-28,1.7186100544619545
2020-08-31,1.7424685311840042
2020-09-01,1.777125406559382
2020-09-02,1.7401594490073071
2020-09-03,1.7401594490073071
2020-09-04,1.7401594490073071
2020-09-08,1.7414253032978195
2020-09-09,1.7579899617318375
2020-09-10,1.7532339672811579
2020-09-11,1.7447346343553802
2020-09-14,1.7536021614056332
2020-09-15,1.7728198161877673
2020-09-16,1.769839341663288
2020-09-17,1.750060501349231
2020-09-18,1.7566568266435212
2020-09-21,1.7837087838857504
2020-09-22,1.8042289157743459
2020-09-23,1.7689346522743028
2020-09-24,1.755658600511628
2020-09-25,1.773572049569712
2020-09-28,1.7842408628654796
2020-09-29,1.7819524962732283
2020-09-30,1.7922731262600982
2020-10-01,1.815133106578764
2020-10-02,1.7947315119217873
2020-10-05,1.8185451757170767
2020-10-06,1.816887766167318
2020-10-07,1.8327641576223401
2020-10-08,1.8277183177794893
2020-10-09,1.840189630079558
2020-10-12,1.850346210956522
2020-10-13,1.873338428371178
2020-10-14,1.8471378217747858
2020-10-15,1.8304386452536512
2020-10-16,1.83193951407612
2020-10-19,1.8077712363951135
2020-10-20,1.8095072660652631
2020-10-21,1.8049276635728781
2020-10-22,1.8049276635728781
2020-10-23,1.8049276635728781
2020-10-26,1.7927282687553046
2020-10-27,1.792058869760992
2020-10-28,1.7736633341873995
2020-10-29,1.8003438048381417
2020-10-30,1.7593437766619289
2020-11-02,1.7621288864779219
2020-11-03,1.7736366000962391
2020-11-04,1.8143892603979497
2020-11-05,1.914842394316905
2020-11-06,1.9300692316369843
2020-11-09,1.8678553982595232
2020-11-10,1.8530762009197295
2020-11-11,1.8798959747573316
2020-11-12,1.8665214593819002
2020-11-13,1.867759949606611
2020-11-16,1.8938002825053049
2020-11-17,1.8864903425246842
2020-11-18,1.884733616016427
2020-11-19,1.8893109549498555
2020-11-20,1.8680721350552814
2020-11-23,1.8951214198031279
2020-11-24,1.9185387342656055
2020-11-25,1.9097092538416969
2020-11-27,1.908173727047792
2020-11-30,1.8341129940838903
2020-12-01,1.8601693829860104
2020-12-02,1.81834751372143
2020-12-03,1.8564644296558481
2020-12-04,1.8652486672789705
2020-12-07,1.92286965827889
2020-12-08,1.9428758979696288
2020-12-09,1.8461707383534116
2020-12-10,1.8445112218913604
2020-12-11,1.83493747252021
2020-12-14,1.8421929389927727
2020-12-15,1.8494470613486507
2020-12-16,1.8522596888854843
2020-12-17,1.9396643430763443
2020-12-18,1.9402952744134896
2020-12-21,1.957738990742147
2020-12-22,1.9788729372375347
2020-12-23,1.9192665717916584
2020-12-24,1.9334046033488383
2020-12-28,1.8928884169882614
2020-12-29,1.8892478094116023
2020-12-30,1.9144474046784787
2020-12-31,1.9396889679935305
2021-01-04,1.9176304701099118
2021-01-05,1.9586058178487038
2021-01-06,1.956691167831051
2021-01-07,1.98222099972649
2021-01-08,1.9606485838553334
2021-01-11,1.9105784835241684
2021-01-12,1.95436675917407
2021-01-13,1.9600564093634718
2021-01-14,1.9492838470929548
2021-01-15,1.9277159790436296
2021-01-19,1.986813887360904
2021-01-20,1.98082494136109
2021-01-21,1.9757746363507929
2021-01-22,1.962519398190424
2021-01-25,2.0181551147050922
2021-01-26,1.9968598198991865
2021-01-27,1.9712181266859958
2021-01-28,1.938328183859374
2021-01-29,1.8903614960203097
2021-02-01,1.936492374135055
2021-02-02,1.9947093505798221
2021-02-03,1.9672711563505485
2021-02-04,1.9879208071193586
2021-02-05,1.9883638743062646
2021-02-08,1.9960034478777877
2021-02-09,1.9860324748229605
2021-02-10,1.9686490566551957
2021-02-11,1.9917263175078643
2021-02-12,2.029093657507058
2021-02-16,2.0077264838130553
2021-02-17,1.9705564687846282
2021-02-18,1.973605860480834
2021-02-19,1.9733848773629996
2021-02-22,1.9026810167800505
2021-02-23,1.8675334423586951
2021-02-24,1.8675334423586951
2021-02-25,1.8675334423586951
2021-02-26,1.8675334423586951
2021-03-01,1.8727424168665592
2021-03-02,1.836317273985442
2021-03-03,1.818602491399588
2021-03-04,1.770180568264505
2021-03-05,1.7640099251122119
2021-03-08,1.718647030103225
2021-03-09,1.7731964708735055
2021-03-10,1.7478067260895886
2021-03-11,1.7848576560187017
2021-03-12,1.7658519993645978
2021-03-15,1.7735360003172271
2021-03-16,1.80053496183982
2021-03-17,1.8225889512500921
2021-03-18,1.776020131063301
2021-03-19,1.781723405460916
2021-03-22,1.8030331168805045
2021-03-23,1.7622226478543288
2021-03-24,1.7806759550948885
2021-03-25,1.775280612731771
2021-03-26,1.810154207775823
2021-03-29,1.8056035616072155
2021-03-30,1.7994223211287879
2021-03-31,1.8294049655458364
2021-04-01,1.8681188935175839
2021-04-05,1.902141070382119
2021-04-06,1.8746092234218632
2021-04-07,1.882768091419797
2021-04-08,1.8948619643135185
2021-04-09,1.9101917537110782
2021-04-12,1.8626075293197948
2021-04-13,1.8599301331004061
2021-04-14,1.8428803323004863
2021-04-15,1.8428803323004863
2021-04-16,1.8428803323004863
2021-04-19,1.8463680075323068
2021-04-20,1.848571166029772
2021-04-21,1.818269518099055
2021-04-22,1.7935193740310635
2021-04-23,1.8125673956679167
2021-04-26,1.8166578732531056
2021-04-27,1.8041295673325408
2021-04-28,1.8409340186894085
2021-04-29,1.855358956822947
2021-04-30,1.8492222949535195
2021-05-03,1.8458069963290127
2021-05-04,1.8104680488831004
2021-05-05,1.800691978481607
2021-05-06,1.814717588887841
2021-05-07,1.8365773641269527
2021-05-10,1.7909555531934715
2021-05-11,1.7747432559316998
2021-05-12,1.7468307069430082
2021-05-13,1.7468307069430082
2021-05-14,1.7468307069430082
2021-05-17,1.7475977977196964
2021-05-18,1.7357754273006558
2021-05-19,1.7380421524496374
2021-05-20,1.7480110006650869
2021-05-21,1.7453319495110158
2021-05-24,1.7609330649562085
2021-05-25,1.7653053871815716
2021-05-26,1.7629855999463955
2021-05-27,1.771534475559425
2021-05-28,1.765675475497524
2021-06-01,1.7686314841863693
2021-06-02,1.766744952315385
2021-06-03,1.760151076854168
2021-06-04,1.7683873307176867
2021-06-07,1.7650563897453058
2021-06-08,1.7623515286462847
2021-06-09,1.7553801875509012
2021-06-10,1.7584582239413713
2021-06-11,1.7567868150113757
2021-06-14,1.7699948276179454
2021-06-15,1.7586664619748995
2021-06-16,1.7518367612002872
2021-06-17,1.7640989988260376
2021-06-18,1.7545583840059582
2021-06-21,1.747807050186591
2021-06-22,1.7593412524495122
2021-06-23,1.7758794346258533
2021-06-24,1.768981123854726
2021-06-25,1.7586949685200644
2021-06-28,1.8014085104192685
2021-06-29,1.7835787997616184
2021-06-30,1.7270784040876284
2021-07-01,1.728183219368396
2021-07-02,1.7029068254842565
2021-07-06,1.6986291250672818
2021-07-07,1.682003888891209
2021-07-08,1.6559779440950821
2021-07-09,1.6686865191305273
2021-07-12,1.6915101724289292
2021-07-13,1.6792260143502151
2021-07-14,1.6562172283657348
2021-07-15,1.6274402046599048
2021-07-16,1.6274402046599048
2021-07-19,1.6269187572571289
2021-07-20,1.6393977787544622
2021-07-21,1.6465913070498848
2021-07-22,1.659894936319905
2021-07-23,1.6671803911361023
2021-07-26,1.664475762108508
2021-07-27,1.6575550095241953
2021-07-28,1.6594918765479099
2021-07-29,1.661984031298428
2021-07-30,1.6655743879558187
2021-08-02,1.6616240497988048
2021-08-03,1.665509431942306
2021-08-04,1.6732751641559047
2021-08-05,1.67918588110203
2021-08-06,1.6756792706556323
2021-08-09,1.6749875718907492
2021-08-10,1.6657791447263255
2021-08-11,1.670387796693276
2021-08-12,1.6798288713715666
2021-08-13,1.6849425815656511
2021-08-16,1.686487465594744
2021-08-17,1.679409929532187
2021-08-18,1.6714989052237192
2021-08-19,1.6873810878545283
2021-08-20,1.6954321312425245
2021-08-23,1.7077223858871913
2021-08-24,1.7092268894481537
2021-08-25,1.7117820828830796
2021-08-26,1.7088053231995954
2021-08-27,1.7129431151535774
2021-08-30,1.724430628149647
2021-08-31,1.7302779004395423
2021-09-01,1.7189289445999476
2021-09-02,1.7264259948535339
2021-09-03,1.7338715401690115
2021-09-07,1.7259383360016989
2021-09-08,1.741138229079327
2021-09-09,1.748502695945622
2021-09-10,1.7229575651620963
2021-09-13,1.7055873725421944
2021-09-14,1.723848793239414
2021-09-15,1.7301044716551202
2021-09-16,1.761888189030374
2021-09-17,1.7555062033949183
2021-09-20,1.7475500685677596
2021-09-21,1.766775253351506
2021-09-22,1.8070302259824997
2021-09-23,1.802476689297311
2021-09-24,1.7960569219930191
2021-09-27,1.7405036733045047
2021-09-28,1.7042662630435297
2021-09-29,1.6998086463898372
2021-09-30,1.711233461477553
2021-10-01,1.7138659034013832
2021-10-04,1.6757449226358305
2021-10-05,1.689939194695345
2021-10-06,1.6941471004542892
2021-10-07,1.6905615113152002
2021-10-08,1.6852868093626758
2021-10-11,1.6967237849291728
2021-10-12,1.712118755488765
2021-10-13,1.742000306799738
2021-10-14,1.7332133317085467
2021-10-15,1.7406920687739442
2021-10-18,1.7556567501269753
2021-10-19,1.7549085212950704
2021-10-20,1.757118265917542
2021-10-21,1.7599039370292244
2021-10-22,1.7609543819975404
2021-10-25,1.7531215684859138
2021-10-26,1.7550729058691952
2021-10-27,1.734981615237301
2021-10-28,1.746568198436562
2021-10-29,1.7644962797819272
2021-11-01,1.8080454263913093
2021-11-02,1.77888431587178
2021-11-03,1.8049672369383787
2021-11-04,1.8296700638351493
2021-11-05,1.8720039188465418
2021-11-08,1.8322929018806149
2021-11-09,1.8125634012637861
2021-11-10,1.8125634012637861
2021-11-11,1.8125634012637861
2021-11-12,1.8125634012637861
2021-11-15,1.7835518656658227
2021-11-16,1.8308935917265567
2021-11-17,1.7930082742147784
2021-11-18,1.7910757354104094
2021-11-19,1.8035410035884976
2021-11-22,1.6629979636413832
2021-11-23,1.6259766101050546
2021-11-24,1.6259766101050546
2021-11-26,1.6259766101050546
2021-11-29,1.6741100350627496
2021-11-30,1.6382543511860586
2021-12-01,1.5593803841069853
2021-12-02,1.5848435406219374
2021-12-03,1.514414762423004
2021-12-06,1.4345888504615327
2021-12-07,1.4345888504615327
2021-12-08,1.4345888504615327
2021-12-09,1.4345888504615327
2021-12-10,1.4345888504615327
2021-12-13,1.3977710278331672
2021-12-14,1.3797082949914885
2021-12-15,1.4326374157805342
2021-12-16,1.3726026444632242
2021-12-17,1.3922876076377306
2021-12-20,1.4048033337717203
2021-12-21,1.4279317592923646
2021-12-22,1.4540931388389513
2021-12-23,1.4601318041306424
2021-12-27,1.4960278702594714
2021-12-28,1.4674000286676572
2021-12-29,1.4759213695280122
2021-12-30,1.4585258238180736
2021-12-31,1.459302193091299
2022-01-03,1.47248113675777
2022-01-04,1.4726338131054362
2022-01-05,1.40675922027427
2022-01-06,1.4117591967503893
2022-01-07,1.3842990681274814
2022-01-10,1.367272058458924
2022-01-11,1.3683969983507218
2022-01-12,1.3716993517911722
2022-01-13,1.373550058441608
2022-01-14,1.3798643906554102
2022-01-18,1.3506229219448906
2022-01-19,1.3402079183425026
2022-01-20,1.3325525973131718
2022-01-21,1.3325525973131718
2022-01-24,1.3325525973131718
2022-01-25,1.3325525973131718
2022-01-26,1.3325525973131718
2022-01-27,1.3325525973131718
2022-01-28,1.3325525973131718
2022-01-31,1.3325525973131718
2022-02-01,1.3325525973131718
2022-02-02,1.3325525973131718
2022-02-03,1.3325525973131718
2022-02-04,1.3325525973131718
2022-02-07,1.3325525973131718
2022-02-08,1.3325525973131718
2022-02-09,1.3325525973131718
2022-02-10,1.3325525973131718
2022-02-11,1.3325525973131718
2022-02-14,1.3325525973131718
2022-02-15,1.3325525973131718
2022-02-16,1.3325525973131718
2022-02-17,1.3325525973131718
2022-02-18,1.3325525973131718
2022-02-22,1.3325525973131718
2022-02-23,1.3325525973131718
2022-02-24,1.3325525973131718
2022-02-25,1.3325525973131718
2022-02-28,1.3325525973131718
2022-03-01,1.3325525973131718
2022-03-02,1.3325525973131718
2022-03-03,1.3325525973131718
2022-03-04,1.3325525973131718
2022-03-07,1.3325525973131718
2022-03-08,1.3325525973131718
2022-03-09,1.3325525973131718
2022-03-10,1.3325525973131718
2022-03-11,1.3325525973131718
2022-03-14,1.3325525973131718
2022-03-15,1.3325525973131718
2022-03-16,1.3325525973131718
2022-03-17,1.3325525973131718
2022-03-18,1.3325525973131718
2022-03-21,1.3325525973131718
2022-03-22,1.3325525973131718
2022-03-23,1.3325525973131718
2022-03-24,1.3325525973131718
2022-03-25,1.3325525973131718
2022-03-28,1.3325525973131718
2022-03-29,1.3325525973131718
2022-03-30,1.3325525973131718
2022-03-31,1.3325525973131718
2022-04-01,1.3325525973131718
2022-04-04,1.3325525973131718
2022-04-05,1.3325525973131718
2022-04-06,1.3325525973131718
2022-04-07,1.3325525973131718
2022-04-08,1.3325525973131718
2022-04-11,1.3325525973131718
2022-04-12,1.3325525973131718
2022-04-13,1.3325525973131718
2022-04-14,1.3325525973131718
2022-04-18,1.3325525973131718
2022-04-19,1.3325525973131718
2022-04-20,1.3325525973131718
2022-04-21,1.3325525973131718
2022-04-22,1.3325525973131718
2022-04-25,1.3325525973131718
2022-04-26,1.3325525973131718
2022-04-27,1.3325525973131718
2022-04-28,1.3325525973131718
2022-04-29,1.3325525973131718
2022-05-02,1.3325525973131718
2022-05-03,1.3325525973131718
2022-05-04,1.3325525973131718
2022-05-05,1.3325525973131718
2022-05-06,1.3325525973131718
2022-05-09,1.3325525973131718
2022-05-10,1.3325525973131718
2022-05-11,1.3325525973131718
2022-05-12,1.3325525973131718
2022-05-13,1.3325525973131718
2022-05-16,1.3325525973131718
2022-05-17,1.3325525973131718
2022-05-18,1.3325525973131718
2022-05-19,1.3325525973131718
2022-05-20,1.3325525973131718
2022-05-23,1.3325525973131718
2022-05-24,1.3325525973131718
2022-05-25,1.3325525973131718
2022-05-26,1.3325525973131718
2022-05-27,1.3325525973131718
2022-05-31,1.3325525973131718
2022-06-01,1.3325525973131718
2022-06-02,1.3325525973131718
2022-06-03,1.3325525973131718
2022-06-06,1.3325525973131718
2022-06-07,1.3325525973131718
2022-06-08,1.3325525973131718
2022-06-09,1.3325525973131718
2022-06-10,1.3325525973131718
2022-06-13,1.3325525973131718
2022-06-14,1.3325525973131718
2022-06-15,1.3325525973131718
2022-06-16,1.3325525973131718
2022-06-17,1.3325525973131718
2022-06-21,1.3325525973131718
2022-06-22,1.3325525973131718
2022-06-23,1.3325525973131718
2022-06-24,1.3325525973131718
2022-06-27,1.3325525973131718
2022-06-28,1.3325525973131718
2022-06-29,1.3325525973131718
2022-06-30,1.3325525973131718
2022-07-01,1.3325525973131718
2022-07-05,1.3325525973131718
2022-07-06,1.3325525973131718
2022-07-07,1.3325525973131718
2022-07-08,1.3325525973131718
2022-07-11,1.3325525973131718
2022-07-12,1.3325525973131718
2022-07-13,1.3325525973131718
2022-07-14,1.3325525973131718
2022-07-15,1.3325525973131718
2022-07-18,1.3325525973131718
2022-07-19,1.3325525973131718
2022-07-20,1.3325525973131718
2022-07-21,1.3325525973131718
2022-07-22,1.3325525973131718
2022-07-25,1.3325525973131718
2022-07-26,1.3325525973131718
2022-07-27,1.3325525973131718
2022-07-28,1.3325525973131718
2022-07-29,1.3325525973131718
2022-08-01,1.3325525973131718
2022-08-02,1.3325525973131718
2022-08-03,1.3325525973131718
2022-08-04,1.3325525973131718
2022-08-05,1.3325525973131718
2022-08-08,1.3325525973131718
2022-08-09,1.3325525973131718
2022-08-10,1.3325525973131718
2022-08-11,1.3325525973131718
2022-08-12,1.3325525973131718
2022-08-15,1.3325525973131718
2022-08-16,1.3325525973131718
2022-08-17,1.3325525973131718
2022-08-18,1.3325525973131718
2022-08-19,1.3325525973131718
2022-08-22,1.3325525973131718
2022-08-23,1.3325525973131718
2022-08-24,1.3325525973131718
2022-08-25,1.3325525973131718
2022-08-26,1.3325525973131718
2022-08-29,1.3325525973131718
2022-08-30,1.3325525973131718
2022-08-31,1.3325525973131718
2022-09-01,1.3325525973131718
2022-09-02,1.3325525973131718
2022-09-06,1.3325525973131718
2022-09-07,1.3325525973131718
2022-09-08,1.3325525973131718
2022-09-09,1.3325525973131718
2022-09-12,1.3325525973131718
2022-09-13,1.3325525973131718
2022-09-14,1.3325525973131718
2022-09-15,1.3325525973131718
2022-09-16,1.3325525973131718
2022-09-19,1.3325525973131718
2022-09-20,1.3325525973131718
2022-09-21,1.3325525973131718
2022-09-22,1.3325525973131718
2022-09-23,1.3325525973131718
2022-09-26,1.3325525973131718
2022-09-27,1.3325525973131718
2022-09-28,1.3325525973131718
2022-09-29,1.3325525973131718
2022-09-30,1.3325525973131718
2022-10-03,1.3325525973131718
2022-10-04,1.3325525973131718
2022-10-05,1.3325525973131718
2022-10-06,1.3325525973131718
2022-10-07,1.3325525973131718
2022-10-10,1.3325525973131718
2022-10-11,1.3325525973131718
2022-10-12,1.3325525973131718
2022-10-13,1.3325525973131718
2022-10-14,1.3325525973131718
2022-10-17,1.3325525973131718
2022-10-18,1.3325525973131718
2022-10-19,1.3325525973131718
2022-10-20,1.3325525973131718
2022-10-21,1.3325525973131718
2022-10-24,1.3325525973131718
2022-10-25,1.3325525973131718
2022-10-26,1.3325525973131718
2022-10-27,1.3325525973131718
2022-10-28,1.3325525973131718
2022-10-31,1.3325525973131718
2022-11-01,1.3325525973131718
2022-11-02,1.3325525973131718
2022-11-03,1.3325525973131718
2022-11-04,1.3325525973131718
2022-11-07,1.3325525973131718
2022-11-08,1.3325525973131718
2022-11-09,1.3325525973131718
2022-11-10,1.3325525973131718
2022-11-11,1.3325525973131718
2022-11-14,1.3325525973131718
2022-11-15,1.3325525973131718
2022-11-16,1.3325525973131718
2022-11-17,1.3325525973131718
2022-11-18,1.3325525973131718
2022-11-21,1.3325525973131718
2022-11-22,1.3325525973131718
2022-11-23,1.3325525973131718
2022-11-25,1.3325525973131718
2022-11-28,1.3325525973131718
2022-11-29,1.3325525973131718
2022-11-30,1.3325525973131718
2022-12-01,1.3325525973131718
2022-12-02,1.3325525973131718
2022-12-05,1.3325525973131718
2022-12-06,1.3325525973131718
2022-12-07,1.3325525973131718
2022-12-08,1.3325525973131718
2022-12-09,1.3325525973131718
2022-12-12,1.3325525973131718
2022-12-13,1.3325525973131718
2022-12-14,1.3325525973131718
2022-12-15,1.3325525973131718
2022-12-16,1.3325525973131718
2022-12-19,1.3325525973131718
2022-12-20,1.3325525973131718
2022-12-21,1.3325525973131718
2022-12-22,1.3325525973131718
2022-12-23,1.3325525973131718
2022-12-27,1.3325525973131718
2022-12-28,1.3325525973131718
2022-12-29,1.3325525973131718
2022-12-30,1.3325525973131718
2023-01-03,1.3325525973131718
2023-01-04,1.3325525973131718
2023-01-05,1.3325525973131718
2023-01-06,1.3325525973131718
2023-01-09,1.3325525973131718
2023-01-10,1.3325525973131718
2023-01-11,1.3325525973131718
2023-01-12,1.3325525973131718
2023-01-13,1.3325525973131718
2023-01-17,1.3325525973131718
2023-01-18,1.3325525973131718
2023-01-19,1.3325525973131718
2023-01-20,1.3325525973131718
2023-01-23,1.3325525973131718
2023-01-24,1.3325525973131718
2023-01-25,1.3325525973131718
2023-01-26,1.3325525973131718
2023-01-27,1.3325525973131718
2023-01-30,1.3325525973131718
2023-01-31,1.3325525973131718
2023-02-01,1.3325525973131718
2023-02-02,1.3325525973131718
2023-02-03,1.3325525973131718
2023-02-06,1.3399363930271977
2023-02-07,1.394509628095856
2023-02-08,1.3662801493059311
2023-02-09,1.3508257302322204
2023-02-10,1.3030304752284825
2023-02-13,1.3386384776339404
2023-02-14,1.3767008472906224
2023-02-15,1.36178508584573
2023-02-16,1.3205238235051535
2023-02-17,1.3024330840923426
2023-02-21,1.2809379047658564
2023-02-22,1.2775087031541328
2023-02-23,1.2769998114518661
2023-02-24,1.2769998114518661
2023-02-27,1.2703740716379448
2023-02-28,1.2765600780930293
2023-03-01,1.2667503376790044
2023-03-02,1.2771203335939596
2023-03-03,1.3048004543110732
2023-03-06,1.299618605571433
2023-03-07,1.2953599391111301
2023-03-08,1.308260652329012
2023-03-09,1.2921185824886559
2023-03-10,1.28171566099697
2023-03-13,1.277095660944589
2023-03-14,1.2918939429372547
2023-03-15,1.2941197898851153
2023-03-16,1.3118319504910667
2023-03-17,1.3143140871097105
2023-03-20,1.3144589240022042
2023-03-21,1.332878845528721
2023-03-22,1.3287355908706335
2023-03-23,1.3532720971445338
2023-03-24,1.3534356001754169
2023-03-27,1.3396063292006637
2023-03-28,1.3308304809702087
2023-03-29,1.3540182799951859
2023-03-30,1.3676357016745155
2023-03-31,1.3865102907660283
2023-04-03,1.3927835489288856
2023-04-04,1.3913335572812922
2023-04-05,1.3729020442696493
2023-04-06,1.390285814230432
2023-04-10,1.3931325842240108
2023-04-11,1.384625220689289
2023-04-12,1.376029079340275
2023-04-13,1.3965982617258195
2023-04-14,1.4043479601325015
2023-04-17,1.3989415188722683
2023-04-18,1.404704277826186
2023-04-19,1.4010228273702052
2023-04-20,1.381168800809028
2023-04-21,1.3711624119476675
2023-04-24,1.368697412095441
2023-04-25,1.349370479868882
2023-04-26,1.352335161078398
2023-04-27,1.3990655863635726
2023-04-28,1.4018861196347163
2023-05-01,1.4042798465426278
2023-05-02,1.3934541245412055
2023-05-03,1.5310946004613764
2023-05-04,1.5254695777398926
2023-05-05,1.5242837151140405
2023-05-08,1.5594151443491873
2023-05-09,1.5535215879369584
2023-05-10,1.5441614788871931
2023-05-11,1.5451685877514367
2023-05-12,1.5225985919837977
2023-05-15,1.533780165297048
2023-05-16,1.5156781286392027
2023-05-17,1.529466535161961
2023-05-18,1.537565560159856
2023-05-19,1.5275958968520895
2023-05-22,1.5548705898399187
2023-05-23,1.5062553408713881
2023-05-24,1.5181207562272234
2023-05-25,1.5081305468902346
2023-05-26,1.528304893967443
2023-05-30,1.5357512382763177
2023-05-31,1.4951223442030521
2023-06-01,1.5190744147912838
2023-06-02,1.4883127553689404
2023-06-05,1.538996168188783
2023-06-06,1.5824251036477168
2023-06-07,1.5864723846157966
2023-06-08,1.6358333417595508
2023-06-09,1.6605985670220957
2023-06-12,1.6619458537342606
2023-06-13,1.595921909780956
2023-06-14,1.5763514499455875
2023-06-15,1.5985971287886929
2023-06-16,1.5872787882457007
2023-06-20,1.5771068385294424
2023-06-21,1.5060032143113595
2023-06-22,1.5094677610694194
2023-06-23,1.5128221156785853
2023-06-26,1.4759646743309358
2023-06-27,1.5042264814782684
2023-06-28,1.5173999688012465
2023-06-29,1.5250053273020328
2023-06-30,1.5546241946014852
2023-07-03,1.5564958092774055
2023-07-05,1.551835474935697
2023-07-06,1.528222472482656
2023-07-07,1.510376103937488
2023-07-10,1.4873407498403646
2023-07-11,1.4893408141914852
2023-07-12,1.5026477221353942
2023-07-13,1.5210926205270194
2023-07-14,1.516576907765756
2023-07-17,1.5329097317837321
2023-07-18,1.5837424070603372
2023-07-19,1.5308705281496124
2023-07-20,1.5170302538754432
2023-07-21,1.5091488196850085
2023-07-24,1.4614430098730156
2023-07-25,1.4844252439538463
2023-07-26,1.5122262828188529
2023-07-27,1.5005292800452863
2023-07-28,1.6086821557162754
2023-07-31,1.6394881222608615
2023-08-01,1.6402555036310447
2023-08-02,1.6333492176624267
2023-08-03,1.6187693131426846
2023-08-04,1.638464995888294
2023-08-07,1.6251322972101772
2023-08-08,1.5995971270113825
2023-08-09,1.5416730853431955
2023-08-10,1.5416730853431955
2023-08-11,1.5416730853431955
2023-08-14,1.5439961558279698
2023-08-15,1.538421534227346
2023-08-16,1.5376873851858615
2023-08-17,1.5267117411791493
2023-08-18,1.5214247375680292
2023-08-21,1.520741639341769
2023-08-22,1.5209725856500171
2023-08-23,1.5260601709537236
2023-08-24,1.515662604182416
2023-08-25,1.5205829805689044
2023-08-28,1.5414400830792039
2023-08-29,1.5523236831345621
2023-08-30,1.587000321430731
2023-08-31,1.5911213483452495
2023-09-01,1.5922809290365338
2023-09-05,1.5753851551650055
2023-09-06,1.5666923667376194
2023-09-07,1.5719822143951905
2023-09-08,1.5639223054362597
2023-09-11,1.5675083749575836
2023-09-12,1.5537923760389944
2023-09-13,1.5342974180908424
2023-09-14,1.535031912701176
2023-09-15,1.5310242336839353
2023-09-18,1.5227243094250247
2023-09-19,1.5244464028466158
2023-09-20,1.518927234938706
2023-09-21,1.5092016523554022
2023-09-22,1.5092016523554022
2023-09-25,1.5036283562260166
2023-09-26,1.5080078178112184
2023-09-27,1.513889137394976
2023-09-28,1.5216343049268812
2023-09-29,1.5236931108104872
2023-10-02,1.5252716827560624
2023-10-03,1.4999926455914716
2023-10-04,1.5062400812872694
2023-10-05,1.5057324070655382
2023-10-06,1.5091030221715251
2023-10-09,1.5376619708761652
2023-10-10,1.5459604274079546
2023-10-11,1.582121401234258
2023-10-12,1.5813212575243711
2023-10-13,1.5721031742249827
2023-10-16,1.5843880074874028
2023-10-17,1.5786454375698311
2023-10-18,1.5802487696805
2023-10-19,1.5620200921930234
2023-10-20,1.5250952282742922
2023-10-23,1.5236666518664734
2023-10-24,1.536093894742985
2023-10-25,1.5143722309613443
2023-10-26,1.502805225552389
2023-10-27,1.5038310407438298
2023-10-30,1.5113552222870612
2023-10-31,1.5169506610606178
2023-11-01,1.5237858736824492
2023-11-02,1.5349551215516868
2023-11-03,1.5447465954992148
2023-11-06,1.5420934805615565
2023-11-07,1.5559938199525671
2023-11-08,1.556030677412494
2023-11-09,1.5484848628731398
2023-11-10,1.5658217511954067
2023-11-13,1.5793857468070454
2023-11-14,1.5945200658791758
2023-11-15,1.5915107119604757
2023-11-16,1.5753420100488307
2023-11-17,1.5814584394152904
2023-11-20,1.6093010249512258
2023-11-21,1.5529689452538005
2023-11-22,1.550118071802459
2023-11-24,1.5336090035094987
2023-11-27,1.5277285255974848
2023-11-28,1.5568277537670117
2023-11-29,1.589589511157908
2023-11-30,1.5976408263460637
2023-12-01,1.6060756210696117
2023-12-04,1.5552728027012246
2023-12-05,1.554529718170722
2023-12-06,1.5291298643593658
2023-12-07,1.5337910215891242
2023-12-08,1.5258873605341443
2023-12-11,1.5455066313509183
2023-12-12,1.549962904929128
2023-12-13,1.5782117060503253
2023-12-14,1.6033113488790631
2023-12-15,1.6395699211382708
2023-12-18,1.6432224301636764
2023-12-19,1.6328269685232213
2023-12-20,1.6070707385194898
2023-12-21,1.6301489976999175
2023-12-22,1.624944202948099
2023-12-26,1.6391604571803402
2023-12-27,1.6377148743178802
2023-12-28,1.6318407304102103
2023-12-29,1.6164787408069416
2024-01-02,1.5632936248765157
2024-01-03,1.5500036953312382
2024-01-04,1.5500036953312382
2024-01-05,1.5500036953312382
2024-01-08,1.5821389517040898
2024-01-09,1.5991452718772234
2024-01-10,1.5951697640834077
2024-01-11,1.5922986295393131
2024-01-12,1.5842371597763396
2024-01-16,1.6706293693932939
2024-01-17,1.6507305159490935
2024-01-18,1.6632261138479971
2024-01-19,1.6838363053406948
2024-01-22,1.6686520799687463
2024-01-23,1.7044360145222757
2024-01-24,1.7368056437892234
2024-01-25,1.7279943553058685
2024-01-26,1.7165752071107485
2024-01-29,1.7856652085845155
2024-01-30,1.8145806981007069
2024-01-31,1.7900316064278812
2024-02-01,1.8090883322595963
2024-02-02,1.8207387744730132
2024-02-05,1.7929842117653423
2024-02-06,1.7595808393232226
2024-02-07,1.8186367895560092
2024-02-08,1.8251275186125775
2024-02-09,1.8585484577505573
2024-02-12,1.8325177418922705
2024-02-13,1.8306327679685273
2024-02-14,1.8671085564146273
2024-02-15,1.8572254443413572
2024-02-16,1.8425026856221083
2024-02-20,1.8008306842638655
2024-02-21,1.7936985038656066
2024-02-22,1.8832068198384264
2024-02-23,1.856002842589836
2024-02-26,1.8462814539725048
2024-02-27,1.8518381871375995
2024-02-28,1.8322392976544877
2024-02-29,1.9306748972723247
2024-03-01,2.0192832522915576
2024-03-04,2.06779571469567
2024-03-05,2.0751887075961015
2024-03-06,2.135264061374436
2024-03-07,2.185587442638427
2024-03-08,2.1681109635785027
2024-03-11,2.120295132093184
2024-03-12,2.1389381562893743
2024-03-13,2.173116968132971
2024-03-14,2.174843144810654
2024-03-15,2.173807465143812
2024-03-18,2.2372797231829047
2024-03-19,2.239785767846822
2024-03-20,2.3011817921837014
2024-03-21,2.3379249844226675
2024-03-22,2.3604156961511813
2024-03-25,2.392616072588728
2024-03-26,2.337274617962741
2024-03-27,2.2414285013623765
2024-03-28,2.242699907236103
2024-04-01,2.2729177600639665
2024-04-02,2.2317578333013874
2024-04-03,2.2321873708179085
2024-04-04,2.1315910112436707
2024-04-05,2.1457473215785705
2024-04-08,2.1135875186896573
2024-04-09,2.054511537876133
2024-04-10,2.054511537876133
2024-04-11,2.054511537876133
2024-04-12,2.054511537876133
2024-04-15,2.025016596035582
2024-04-16,2.0328275272402703
2024-04-17,2.000415725064014
2024-04-18,1.96804100799238
2024-04-19,1.9477603137015922
2024-04-22,1.9610808096694465
2024-04-23,1.9902826533843627
2024-04-24,1.983712052399404
2024-04-25,1.9644113928627458
2024-04-26,1.9962626839246067
2024-04-29,1.9734175436386359
2024-04-30,1.936882284969548
2024-05-01,1.9374978829887486
2024-05-02,1.972588489613262
2024-05-03,1.9941977504659465
2024-05-06,2.0115530546599327
2024-05-07,2.031732622912133
2024-05-08,1.9993880571884428
2024-05-09,2.0766574440936036
2024-05-10,2.0809766744192633
2024-05-13,2.083443343212081
2024-05-14,2.0702552893481934
2024-05-15,2.0872983720237537
2024-05-16,2.091383135058483
2024-05-17,2.0973246275420196
2024-05-20,2.116752252368488
2024-05-21,2.1182824303090557
2024-05-22,2.082002403400982
2024-05-23,2.0573735435951837
2024-05-24,2.0658405694188104
2024-05-28,2.0544283732259565
2024-05-29,2.0286047375909595
2024-05-30,1.9938780034669736
2024-05-31,1.989505602090748
2024-06-03,2.0052811401123174
2024-06-04,2.021260684349278
2024-06-05,2.082310827954867
2024-06-06,2.0776952396249433
2024-06-07,2.063403832750505
2024-06-10,2.075560595986626
2024-06-11,2.077570433668446
2024-06-12,2.121282408450763
2024-06-13,2.143655092337406
2024-06-14,2.172735655365304
2024-06-17,2.167659319792439
2024-06-18,2.194488390595244
2024-06-20,2.1752727024176255
2024-06-21,2.1948751906526835
2024-06-24,2.1467148981407647
2024-06-25,2.2461917172304107
2024-06-26,2.2480730410690395
2024-06-27,2.2355883919999124
2024-06-28,2.212385060908848
2024-07-01,2.2241073151736415
2024-07-02,2.2228165274025935
2024-07-03,2.2762581009825507
2024-07-05,2.282548409846134
2024-07-08,2.2944406831254405
2024-07-09,2.322504460438152
2024-07-10,2.366934013167306
2024-07-11,2.266939087396155
2024-07-12,2.280404382689467
2024-07-15,2.2818647272002384
2024-07-16,2.2480444924498224
2024-07-17,2.2237344730203454
2024-07-18,2.2237344730203454
2024-07-19,2.2237344730203454
2024-07-22,2.2313207996956876
2024-07-23,2.2263683836523276
2024-07-24,2.112247973760399
2024-07-25,2.0991807560101936
2024-07-26,2.0991807560101936
2024-07-29,2.0875744205665
2024-07-30,2.075264214143351
2024-07-31,2.0838935967899053
2024-08-01,2.073276452242751
2024-08-02,2.036063932533317
2024-08-05,2.008727984627476
2024-08-06,2.0103540585606723
2024-08-07,1.9896459382540952
2024-08-08,2.0001629068208864
2024-08-09,1.9873970621364307
2024-08-12,1.9691695166235357
2024-08-13,1.9923057272473117
2024-08-14,2.003382334019149
2024-08-15,2.008318378215657
2024-08-16,2.018738665712429
2024-08-19,2.0300681756331187
2024-08-20,2.0290962628209908
2024-08-21,2.0352229385580696
2024-08-22,2.0301334206341766
2024-08-23,2.033257994844443
2024-08-26,2.0195715424110228
2024-08-27,2.0196718985389888
2024-08-28,2.022107024410348
2024-08-29,2.0385049341655606
2024-08-30,2.0434117898543933
2024-09-03,2.03211102075086
2024-09-04,2.010734710194405
2024-09-05,2.008353509764188
2024-09-06,2.0080228051820947
2024-09-09,2.0175404320974804
2024-09-10,2.041259230778632
2024-09-11,2.047169986634103
2024-09-12,2.0591772223546405
2024-09-13,2.052958265299018
2024-09-16,2.0552240454460367
2024-09-17,2.048728485198497
2024-09-18,2.042477138653558
2024-09-19,2.0491914756047294
2024-09-20,2.039868356905076
2024-09-23,2.0420279575815488
2024-09-24,2.041472755339337
2024-09-25,2.0279815722762846
2024-09-26,2.018419637321532
2024-09-27,2.0222250233002916
2024-09-30,2.047830106892759
2024-10-01,2.049289472285463
2024-10-02,2.06025207012927
2024-10-03,2.0872460991087136
2024-10-04,2.124966960572437
2024-10-07,2.1261947613588674
2024-10-08,2.1595889854304455
2024-10-09,2.164926982702495
2024-10-10,2.1665142469561567
2024-10-11,2.1854857288200598
2024-10-14,2.1726935107082985
2024-10-15,2.166036934955358
2024-10-16,2.180480172540123
2024-10-17,2.1699049335684233
2024-10-18,2.1832093118702898
2024-10-21,2.233088037693393
2024-10-22,2.245572613564209
2024-10-23,2.2393636722051586
2024-10-24,2.249711837004051
2024-10-25,2.251180679353098
2024-10-28,2.2475781428628294
2024-10-29,2.2420381341019446
2024-10-30,2.2124362410081844
2024-10-31,2.1601997169480542
2024-11-01,2.164806376552984
2024-11-04,2.1580781569910736
2024-11-05,2.180919858063903
2024-11-06,2.2020068723538566
2024-11-07,2.459674647415773
2024-11-08,2.459674647415773
2024-11-11,2.4750031429546553
2024-11-12,2.3906369402702143
2024-11-13,2.414236034848707
2024-11-14,2.315460065835909
2024-11-15,2.4841184095177242
2024-11-18,2.432826343943532
2024-11-19,2.458609281555378
2024-11-20,2.4445103619813313
2024-11-21,2.436022658282775
2024-11-22,2.4819062209875984
2024-11-25,2.345025249456624
2024-11-26,2.380141388760629
2024-11-27,2.3568512670574475
2024-11-29,2.4297066121484
2024-12-02,2.4858027626791923
2024-12-03,2.558476375353459
2024-12-04,2.6071577946081104
2024-12-05,2.6674098694242936
2024-12-06,2.755905151111934
2024-12-09,2.599027517039476
2024-12-10,2.638802729260301
2024-12-11,2.723254161796855
2024-12-12,2.6995666243421668
2024-12-13,2.763952871728404
2024-12-16,2.833491069272598
2024-12-17,2.8108842155219635
2024-12-18,2.7184452666524326
2024-12-19,2.7395623941970166
2024-12-20,2.822429678862969
2024-12-23,2.837400134862914
2024-12-24,2.8560938649112724
2024-12-26,2.8701072373625682
2024-12-27,2.7730422417016634
2024-12-30,2.740287870831897
2024-12-31,2.669912581363827
2025-01-02,2.728998870755232
2025-01-03,2.844992519522287
2025-01-06,2.7908593184801154
2025-01-07,2.5695429462495616
2025-01-08,2.5695429462495616
2025-01-10,2.5695429462495616
2025-01-13,2.6030863776621085
2025-01-14,2.6016501054760144
2025-01-15,2.6158748164692898
2025-01-16,2.6290544487193315
2025-01-17,2.6936841061114434
2025-01-21,2.696443741559136
2025-01-22,2.7063977447182834
2025-01-23,2.709433375696932
2025-01-24,2.71063948951016
2025-01-27,2.6212877649241464
2025-01-28,2.6212877649241464
2025-01-29,2.6212877649241464
2025-01-30,2.6212877649241464
2025-01-31,2.6212877649241464
2025-02-03,2.672969227628361
2025-02-04,2.864752950960468
2025-02-05,2.8223248462837103
2025-02-06,2.8555539723664856
2025-02-07,2.8464520147346826
2025-02-10,2.864587082524197
2025-02-11,2.8277977861555317
2025-02-12,2.865587402165183
2025-02-13,3.0980794744126827
2025-02-14,3.0590417213349905
2025-02-18,3.245138460804231
2025-02-19,3.359261886141871
2025-02-20,3.3469179972763667
2025-02-21,3.2923730697375024
2025-02-24,3.2300863752857136
2025-02-25,3.1634056266113277
2025-02-26,3.1342026858206853
2025-02-27,3.1342026858206853
2025-02-28,3.1342026858206853
2025-03-03,3.1374506785664082
2025-03-04,3.106304975437783
2025-03-05,3.1015305661238965
2025-03-06,3.105622496369544
2025-03-07,3.1149659280549256
2025-03-10,3.11216975591745
2025-03-11,3.11216975591745
2025-03-12,3.11216975591745
2025-03-13,3.11216975591745
2025-03-14,3.11216975591745
2025-03-17,3.11216975591745
2025-03-18,3.11216975591745
2025-03-19,3.11216975591745
2025-03-20,3.11216975591745
2025-03-21,3.11216975591745
2025-03-24,3.11216975591745
2025-03-25,3.11216975591745
2025-03-26,3.11216975591745
2025-03-27,3.11216975591745
2025-03-28,3.11216975591745
2025-03-31,3.11216975591745
2025-04-01,3.11216975591745
2025-04-02,3.11216975591745
2025-04-03,3.11216975591745
2025-04-04,3.11216975591745
2025-04-07,3.11216975591745
2025-04-08,3.11216975591745
2025-04-09,3.11216975591745
2025-04-10,3.11216975591745
2025-04-11,3.11216975591745
2025-04-14,3.11216975591745
2025-04-15,3.11216975591745
2025-04-16,3.11216975591745
2025-04-17,3.11216975591745
2025-04-21,3.11216975591745
2025-04-22,3.11216975591745
2025-04-23,3.11216975591745
2025-04-24,3.11216975591745
2025-04-25,3.11216975591745
2025-04-28,3.11216975591745
2025-04-29,3.11216975591745
2025-04-30,3.11216975591745
2025-05-01,3.11216975591745
2025-05-02,3.11216975591745
2025-05-05,3.11216975591745
2025-05-06,3.11216975591745
2025-05-07,3.11216975591745
2025-05-08,3.11216975591745
2025-05-09,3.11216975591745
2025-05-12,3.11216975591745
2025-05-13,3.11216975591745
2025-05-14,3.11216975591745
2025-05-15,3.11216975591745
2025-05-16,3.11216975591745
2025-05-19,3.134635351079986
2025-05-20,3.1259219247734147
2025-05-21,3.0771681333744594
2025-05-22,3.1009458797214196
2025-05-23,3.0543308416844677
2025-05-27,3.083942063323193
2025-05-28,3.085862956362817
2025-05-29,3.0647408211879945
2025-05-30,3.193533093936261
2025-06-02,3.215000206190032
2025-06-03,3.2344304243013493
2025-06-04,3.1778976126047613
2025-06-05,3.0565811273472177
2025-06-06,3.066207122058224
2025-06-09,3.0555805311984683
2025-06-10,3.0649750014858803
2025-06-11,3.1089825483748035
2025-06-12,3.0835502207472176
2025-06-13,3.0520726380586325
2025-06-16,3.1248239802952904
2025-06-17,3.0472272466067265
2025-06-18,3.042211818107736
2025-06-20,3.0090226139585505
2025-06-23,3.075989239310494
2025-06-24,3.1087193467837926
2025-06-25,3.1196836653113524
2025-06-26,3.1445400005853266
2025-06-27,3.018605261521846
2025-06-30,2.966046115444339
2025-07-01,2.8685610067393066
2025-07-02,2.8325382721761185
2025-07-03,2.8325382721761185
2025-07-07,2.791704874646392
2025-07-08,2.7460805412364113
2025-07-09,2.7248239121250393
2025-07-10,2.7147454852757753
2025-07-11,2.687942692467666
2025-07-14,2.690489164211343
2025-07-15,2.8084823536801644
2025-07-16,2.8866864745325875
2025-07-17,2.9346075245726055
2025-07-18,2.8841347695135453
2025-07-21,2.87269401181146
2025-07-22,2.8195470991560656
2025-07-23,2.8775338179532692
2025-07-24,2.914146410018097
2025-07-25,2.96683018284467
2025-07-28,3.04669556914266
2025-07-29,3.0941665177162783
2025-07-30,3.1164011598632086
2025-07-31,3.1069509034122356
2025-08-01,3.0247538562833154
2025-08-04,3.0453694542294922
2025-08-05,2.9987519962888634
2025-08-06,2.7027519975263967
2025-08-07,2.7027519975263967
2025-08-08,2.7027519975263967
2025-08-11,2.691376179824343
2025-08-12,2.7287310502108086
2025-08-13,2.8110744890532984
2025-08-14,2.731326275234852
2025-08-15,2.6788878182247746
2025-08-18,2.682700960798522
2025-08-19,2.599620512927448
2025-08-20,2.5820509069790827
2025-08-21,2.576582828591232
2025-08-22,2.6252577127290833
2025-08-25,2.6418958137398834
2025-08-26,2.700105822696713
2025-08-27,2.652994989962416
2025-08-28,2.7147459676440753
2025-08-29,2.699434323801781
2025-09-02,2.7265095134446673
2025-09-03,2.7315976311226002
2025-09-04,2.7886883852958766
2025-09-05,2.765577951725443
2025-09-08,2.9310186416600468
2025-09-09,2.9807534461530754
2025-09-10,3.015408391919027
2025-09-11,3.0219082311463783
2025-09-12,3.0493453341001633
2025-09-15,3.0906916055521885
2025-09-16,3.1081861633267662
2025-09-17,3.0825522725751693
2025-09-18,3.126647539294494
2025-09-19,3.2099416574663646
2025-09-22,3.193453402177423
2025-09-23,3.1978717119380993
2025-09-24,3.155871554926085
2025-09-25,3.1264742625316533
2025-09-26,3.1387348450040164
2025-09-29,3.1313156911239552
2025-09-30,3.062630049463294
2025-10-01,3.2158825705603804
2025-10-02,3.296801023657447
2025-10-03,3.2552071331566923
2025-10-06,3.247117162139259
2025-10-07,3.2598033096136634
2025-10-08,3.304674753472735
2025-10-09,3.3401997779134303
2025-10-10,3.2073635836069485
2025-10-13,3.265059892167683
2025-10-14,3.137450282757002
2025-10-15,3.1534009187612386
2025-10-16,3.139592945264271
2025-10-17,3.156178448718386
2025-10-20,3.1695818656998935
2025-10-21,3.129193169092041
2025-10-22,3.0977182991486774
2025-10-23,3.1794450032213146
2025-10-24,3.286559745559492
2025-10-27,3.3209057767505468
2025-10-28,3.319857650778736
2025-10-29,3.371661422246276
2025-10-30,3.3796844540023105
2025-10-31,3.4265965395340445
2025-11-03,3.5457842571637253
2025-11-04,3.352369896444772
2025-11-05,3.4994454875449854
2025-11-06,3.5057152647307213
2025-11-07,3.5026182139836104
2025-11-10,3.6684123833146653
2025-11-11,3.564735831100193
2025-11-12,3.5650140540386683
2025-11-13,3.4444540000313757
2025-11-14,3.451353864294338
2025-11-17,3.3729853002062296
2025-11-18,3.3179964060105807
2025-11-19,3.2758265926438934
2025-11-20,3.2378061460291336
2025-11-21,3.2378061460291336
2025-11-24,3.2597477827316563
2025-11-25,3.2999796082161392
2025-11-26,3.2880099394064635
2025-11-28,3.283894820741148
2025-12-01,3.238054763611574
2025-12-02,3.231799683352837
2025-12-03,3.222190902662498
2025-12-04,3.216033823883995
2025-12-05,3.2207949023174205
2025-12-08,3.1919338858246813
2025-12-09,3.200681067925354
2025-12-10,3.2088295853842457
2025-12-11,3.1885754805394053
2025-12-12,3.1804010447972177
2025-12-15,3.1710850996726
2025-12-16,3.1594430272439453
2025-12-17,3.1144002721491937
2025-12-18,3.1302119872152434
2025-12-19,3.139009709246467
2025-12-22,3.143679371276347
2025-12-23,3.145544403638275
2025-12-24,3.20652355664609
2025-12-26,3.19914039339361
2025-12-29,3.2578819840450555
2025-12-30,3.2386516734664577
2025-12-31,3.188486009910017
2026-01-02,3.3954695897818503
2026-01-05,3.423538995258368
2026-01-06,3.498849222961448
2026-01-07,3.487330503592771
2026-01-08,3.455404719894707
2026-01-09,3.5144795074122963
2026-01-12,3.567616785468967
2026-01-13,3.5114811747682397
2026-01-14,3.456999184458221
2026-01-15,3.5795779103224925
2026-01-16,3.6482117224422805
2026-01-20,3.6171932456886693
2026-01-21,3.6870314025567166
2026-01-22,3.6049759750274326
2026-01-23,3.553019782931588
2026-01-26,3.5557855160397795
2026-01-27,3.7772637443784207
2026-01-28,3.8988248383582564
2026-01-29,3.9708033732445394
2026-01-30,3.757542468008135
2026-02-02,3.893269739514332
2026-02-03,3.750766601202889
2026-02-04,3.604377504540521
2026-02-05,3.604377504540521
2026-02-06,3.604377504540521
2026-02-09,3.6008881451057895
2026-02-10,3.5853822951304446
2026-02-11,3.6961437194932314
2026-02-12,3.690237620049747
2026-02-13,3.697639161339263
2026-02-17,3.6676050303577976
2026-02-18,3.708062580251611
2026-02-19,3.6780789137811585
2026-02-20,3.71053180146676
2026-02-23,3.694018812561386
2026-02-24,3.660500126767531
2026-02-25,3.688753353850465
2026-02-26,3.6517687425313925
2026-02-27,3.6271132343263446
2026-03-02,3.6415771217400827
2026-03-03,3.5274948803494413
2026-03-04,3.543311663095705
2026-03-05,3.515730517649722
2026-03-06,3.462514429691712
2026-03-09,3.5235466912455013
2026-03-10,3.520223424298941
2026-03-11,3.5445434570334964
2026-03-12,3.4473896215335174
2026-03-13,3.429240119752807
2026-03-16,3.404999837827
2026-03-17,3.4432347977872
2026-03-18,3.4433117393335633
2026-03-19,3.4097479704932288
2026-03-20,3.3686679926829104
2026-03-23,3.374915518563898
2026-03-24,3.374915518563898
2026-03-25,3.374915518563898
2026-03-26,3.374915518563898
2026-03-27,3.374915518563898
2026-03-30,3.374915518563898
2026-03-31,3.374915518563898
2026-04-01,3.374915518563898
2026-04-02,3.374915518563898
2026-04-06,3.374915518563898
2026-04-07,3.374915518563898
2026-04-08,3.374915518563898
2026-04-09,3.374915518563898
2026-04-10,3.374915518563898
2026-04-13,3.4735983339199255
2026-04-14,3.469267018568745
2026-04-15,3.5099305994274443
2026-04-16,3.5905730070980235
2026-04-17,3.6726284452591864
2026-04-20,3.7024561606075883
2026-04-21,3.76270628759693
2026-04-22,3.813869852620943
2026-04-23,3.961832123032038
2026-04-24,4.311420561776961
2026-04-27,4.298462534095005
2026-04-28,4.116582916088993
2026-04-29,4.195283938812707
2026-04-30,4.195283938812707
2026-05-01,4.195283938812707
2026-05-04,4.062938965683407
2026-05-05,4.207334991721028
2026-05-06,4.635427359743014
2026-05-07,4.406263818063428
2026-05-08,4.60048826352174
2026-05-11,4.584630322363762
2026-05-12,4.258005692742282
2026-05-13,4.428499279976071
2026-05-14,4.487189712726231
2026-05-15,4.4150626385464
2026-05-18,4.273163238915486
2026-05-19,4.238054643104112
2026-05-20,4.4076786720057015
