Date,Value
2018-01-02,1.0
2018-01-03,1.0
2018-01-04,1.0
2018-01-05,1.0
2018-01-08,1.0243276923826676
2018-01-09,1.02299762261486
2018-01-10,1.0227144092576712
2018-01-11,1.0309463920954007
2018-01-12,1.0410748266118746
2018-01-16,1.0380035739363198
2018-01-17,1.0676603636065272
2018-01-18,1.057172428095476
2018-01-19,1.0643338941241338
2018-01-22,1.0869617927762811
2018-01-23,1.093849946770463
2018-01-24,1.0611631981745457
2018-01-25,1.067959479293417
2018-01-26,1.1011790150080616
2018-01-29,1.1336713421126043
2018-01-30,1.1167631174958406
2018-01-31,1.1017780038982727
2018-02-01,1.0791644983950939
2018-02-02,1.0678318005985932
2018-02-05,1.0341164292451566
2018-02-06,1.0341164292451566
2018-02-07,1.0341164292451566
2018-02-08,1.0341164292451566
2018-02-09,1.0341164292451566
2018-02-12,1.0498025537636948
2018-02-13,1.0461887764689417
2018-02-14,1.0782272596245719
2018-02-15,1.0936765973714135
2018-02-16,1.0910016109271743
2018-02-20,1.1020402962013522
2018-02-21,1.0838775222430659
2018-02-22,1.0835878720368373
2018-02-23,1.0974881019339389
2018-02-26,1.104396019946518
2018-02-27,1.1036705487829526
2018-02-28,1.1056132749095346
2018-03-01,1.101746607817046
2018-03-02,1.1124670470063682
2018-03-05,1.132096273146388
2018-03-06,1.1472300207770214
2018-03-07,1.1476171053154356
2018-03-08,1.1511725647788729
2018-03-09,1.1696477837229962
2018-03-12,1.1571331092594155
2018-03-13,1.1456419529925685
2018-03-14,1.1534056070225212
2018-03-15,1.155366207378724
2018-03-16,1.1522609088187163
2018-03-19,1.1438101795459799
2018-03-20,1.1636366876264959
2018-03-21,1.1548119051142363
2018-03-22,1.1365019315068356
2018-03-23,1.1221366210316222
2018-03-26,1.1203635077811576
2018-03-27,1.1081288273403058
2018-03-28,1.1023426035098833
2018-03-29,1.1023426035098833
2018-04-02,1.0878499590758213
2018-04-03,1.0987527554555152
2018-04-04,1.1074901409779372
2018-04-05,1.1205340169669973
2018-04-06,1.1081365726262398
2018-04-09,1.1031228129415709
2018-04-10,1.1106084957271598
2018-04-11,1.1099624880806147
2018-04-12,1.12394401495821
2018-04-13,1.1146117039829413
2018-04-16,1.1200021511190956
2018-04-17,1.130490445052283
2018-04-18,1.1317365116448155
2018-04-19,1.1236366155435564
2018-04-20,1.1200343694517279
2018-04-23,1.118048105282659
2018-04-24,1.1183828236315847
2018-04-25,1.116906976064989
2018-04-26,1.1306496965644826
2018-04-27,1.127044723286713
2018-04-30,1.1211880468831095
2018-05-01,1.1327704394709297
2018-05-02,1.1312679047395602
2018-05-03,1.1261003874923872
2018-05-04,1.1333610633545363
2018-05-07,1.1411800591762722
2018-05-08,1.147780989891241
2018-05-09,1.1589541407223607
2018-05-10,1.1612833863670735
2018-05-11,1.1541388041706555
2018-05-14,1.1519878388680196
2018-05-15,1.1500098502305833
2018-05-16,1.1501035492354292
2018-05-17,1.1513827487054384
2018-05-18,1.147007374577138
2018-05-21,1.1589847325386942
2018-05-22,1.156052466952678
2018-05-23,1.1642472676443096
2018-05-24,1.1650424292970054
2018-05-25,1.1689567075053644
2018-05-29,1.1661081366518866
2018-05-30,1.1708256139266908
2018-05-31,1.1658321256017619
2018-06-01,1.1775977431324698
2018-06-04,1.1745726589831453
2018-06-05,1.1664862608248125
2018-06-06,1.1678197651206335
2018-06-07,1.1551486795532646
2018-06-08,1.1506980294378089
2018-06-11,1.1675031273155816
2018-06-12,1.1736458406974606
2018-06-13,1.1925298204490156
2018-06-14,1.192619818312423
2018-06-15,1.1937145212317188
2018-06-18,1.2170965682673165
2018-06-19,1.2012277250089958
2018-06-20,1.1948046200695501
2018-06-21,1.1619334190111485
2018-06-22,1.1676008836220528
2018-06-25,1.1105931704356982
2018-06-26,1.1212919536375485
2018-06-27,1.1148339403998615
2018-06-28,1.1184432495966747
2018-06-29,1.1155802022621129
2018-07-02,1.1011342406790057
2018-07-03,1.0832263390544952
2018-07-05,1.0888735456083345
2018-07-06,1.0959486763196835
2018-07-09,1.0996906373278539
2018-07-10,1.0953188007021182
2018-07-11,1.0882685277125679
2018-07-12,1.0941195901524177
2018-07-13,1.071872309056272
2018-07-16,1.0854353848303782
2018-07-17,1.0764510005170962
2018-07-18,1.0757926029536566
2018-07-19,1.0711838827978264
2018-07-20,1.0642708967464523
2018-07-23,1.054886248955168
2018-07-24,1.025069235950678
2018-07-25,1.037175465312
2018-07-26,1.1111329838468031
2018-07-27,1.117785537380188
2018-07-30,1.117805759298453
2018-07-31,1.0814499278334062
2018-08-01,1.0908906625940304
2018-08-02,1.0894266934155978
2018-08-03,1.0795509183287453
2018-08-06,1.1057741842762745
2018-08-07,1.111690938376102
2018-08-08,1.0866773803016794
2018-08-09,1.0708762155086122
2018-08-10,1.069559420381733
2018-08-13,1.0860021193531617
2018-08-14,1.1040723404367112
2018-08-15,1.0897961348860725
2018-08-16,1.0803186469677228
2018-08-17,1.099515342192594
2018-08-20,1.1081607770144202
2018-08-21,1.1219174991509584
2018-08-22,1.1484945559824895
2018-08-23,1.2067258343248994
2018-08-24,1.2760801274071982
2018-08-27,1.3223051833642245
2018-08-28,1.3225991277541014
2018-08-29,1.3278835575937982
2018-08-30,1.3057593277252915
2018-08-31,1.3272424192806445
2018-09-04,1.4340900402157173
2018-09-05,1.4377466971405486
2018-09-06,1.4614968307916683
2018-09-07,1.4552934427737438
2018-09-10,1.5612045690424874
2018-09-11,1.5783043722414503
2018-09-12,1.6281524027896883
2018-09-13,1.5660742456783139
2018-09-14,1.6452876847481686
2018-09-17,1.6328999199519671
2018-09-18,1.6301613222501632
2018-09-19,1.602578843944947
2018-09-20,1.5959088805357573
2018-09-21,1.5845436249659937
2018-09-24,1.6434683224624074
2018-09-25,1.6543479814831514
2018-09-26,1.6372649887991262
2018-09-27,1.6297819291784175
2018-09-28,1.5819965523623356
2018-10-01,1.5808025453754906
2018-10-02,1.4744482037212583
2018-10-03,1.440699485520661
2018-10-04,1.440699485520661
2018-10-05,1.440699485520661
2018-10-08,1.4402215972020005
2018-10-09,1.44502068365995
2018-10-10,1.4181221311268273
2018-10-11,1.4181221311268273
2018-10-12,1.4181221311268273
2018-10-15,1.420512090035631
2018-10-16,1.4271788092192743
2018-10-17,1.4352921168691812
2018-10-18,1.4323989399366535
2018-10-19,1.4325247104702084
2018-10-22,1.4332975159898818
2018-10-23,1.4351625916468784
2018-10-24,1.4295615215280206
2018-10-25,1.4411892251753486
2018-10-26,1.4347077041367278
2018-10-29,1.4406438829166819
2018-10-30,1.4406438829166819
2018-10-31,1.4406438829166819
2018-11-01,1.4406438829166819
2018-11-02,1.4406438829166819
2018-11-05,1.4406438829166819
2018-11-06,1.4406438829166819
2018-11-07,1.4406438829166819
2018-11-08,1.4406438829166819
2018-11-09,1.4406438829166819
2018-11-12,1.4406438829166819
2018-11-13,1.4406438829166819
2018-11-14,1.4406438829166819
2018-11-15,1.4406438829166819
2018-11-16,1.4406438829166819
2018-11-19,1.4406438829166819
2018-11-20,1.4406438829166819
2018-11-21,1.4406438829166819
2018-11-23,1.4406438829166819
2018-11-26,1.4406438829166819
2018-11-27,1.4406438829166819
2018-11-28,1.4406438829166819
2018-11-29,1.4406438829166819
2018-11-30,1.4406438829166819
2018-12-03,1.4406438829166819
2018-12-04,1.4406438829166819
2018-12-06,1.4406438829166819
2018-12-07,1.4406438829166819
2018-12-10,1.4406438829166819
2018-12-11,1.4406438829166819
2018-12-12,1.4406438829166819
2018-12-13,1.4406438829166819
2018-12-14,1.4406438829166819
2018-12-17,1.4406438829166819
2018-12-18,1.4406438829166819
2018-12-19,1.4406438829166819
2018-12-20,1.4406438829166819
2018-12-21,1.4406438829166819
2018-12-24,1.4406438829166819
2018-12-26,1.4406438829166819
2018-12-27,1.4406438829166819
2018-12-28,1.4406438829166819
2018-12-31,1.4406438829166819
2019-01-02,1.4406438829166819
2019-01-03,1.4406438829166819
2019-01-04,1.4406438829166819
2019-01-07,1.4406438829166819
2019-01-08,1.4406438829166819
2019-01-09,1.4406438829166819
2019-01-10,1.4406438829166819
2019-01-11,1.4406438829166819
2019-01-14,1.4406438829166819
2019-01-15,1.4406438829166819
2019-01-16,1.4406438829166819
2019-01-17,1.4406438829166819
2019-01-18,1.4406438829166819
2019-01-22,1.4406438829166819
2019-01-23,1.4406438829166819
2019-01-24,1.4406438829166819
2019-01-25,1.4406438829166819
2019-01-28,1.4406438829166819
2019-01-29,1.4406438829166819
2019-01-30,1.4406438829166819
2019-01-31,1.4406438829166819
2019-02-01,1.4406438829166819
2019-02-04,1.4406438829166819
2019-02-05,1.4406438829166819
2019-02-06,1.4406438829166819
2019-02-07,1.4406438829166819
2019-02-08,1.4406438829166819
2019-02-11,1.4406438829166819
2019-02-12,1.4406438829166819
2019-02-13,1.4406438829166819
2019-02-14,1.4406438829166819
2019-02-15,1.4406438829166819
2019-02-19,1.4354095114275438
2019-02-20,1.4463453495513015
2019-02-21,1.4516469558860479
2019-02-22,1.4754803142689756
2019-02-25,1.48926173327514
2019-02-26,1.4107162949922083
2019-02-27,1.4053020261763116
2019-02-28,1.4008830825284178
2019-03-01,1.4035103575133387
2019-03-04,1.3777797535025762
2019-03-05,1.3551664985841394
2019-03-06,1.3535796532793767
2019-03-07,1.3640875036575397
2019-03-08,1.3797915534641685
2019-03-11,1.4121233973932346
2019-03-12,1.4157030112325453
2019-03-13,1.4289821826554412
2019-03-14,1.4536929487723085
2019-03-15,1.4565797213382725
2019-03-18,1.4867371732590424
2019-03-19,1.4980246616551307
2019-03-20,1.5187433794743361
2019-03-21,1.602930185378074
2019-03-22,1.5481092750807515
2019-03-25,1.5598909718790068
2019-03-26,1.5933685136418023
2019-03-27,1.5573926128559918
2019-03-28,1.5724552829654455
2019-03-29,1.5753911062315686
2019-04-01,1.5779815514508604
2019-04-02,1.5632247428013961
2019-04-03,1.5550248043276467
2019-04-04,1.4389258416290351
2019-04-05,1.4168556333173328
2019-04-08,1.3971859045145902
2019-04-09,1.3654285550252796
2019-04-10,1.379953227697175
2019-04-11,1.3789685287976106
2019-04-12,1.3804456006245909
2019-04-15,1.3768627050428277
2019-04-16,1.3595375087027208
2019-04-17,1.3199880041271865
2019-04-18,1.3018698425146153
2019-04-22,1.330811026936149
2019-04-23,1.362558705692234
2019-04-24,1.3754762951644217
2019-04-25,1.342102951702456
2019-04-26,1.3597212905980371
2019-04-29,1.3597844404728372
2019-04-30,1.3496028365237425
2019-05-01,1.3312814375518531
2019-05-02,1.3737005651263363
2019-05-03,1.3886870989112126
2019-05-06,1.3609098103340829
2019-05-07,1.3184954859410474
2019-05-08,1.3239516744009978
2019-05-09,1.3209991157813024
2019-05-10,1.355472756849089
2019-05-13,1.2979741870045318
2019-05-14,1.3153837163078872
2019-05-15,1.3163941937116466
2019-05-16,1.289580349226504
2019-05-17,1.2773006813938224
2019-05-20,1.269991811389625
2019-05-21,1.2743744995232096
2019-05-22,1.280871514710338
2019-05-23,1.2621036283926261
2019-05-24,1.2683814910095377
2019-05-28,1.278137899910448
2019-05-29,1.2538926081205313
2019-05-30,1.266631986969161
2019-05-31,1.2447406951535895
2019-06-03,1.2440075081715247
2019-06-04,1.2440075081715247
2019-06-05,1.2440075081715247
2019-06-06,1.2440075081715247
2019-06-07,1.2440075081715247
2019-06-10,1.2394815284801723
2019-06-11,1.2057530818190396
2019-06-12,1.224533541215385
2019-06-13,1.220506662283399
2019-06-14,1.2121023495478362
2019-06-17,1.2110276100363988
2019-06-18,1.212746894522199
2019-06-19,1.2862622923798712
2019-06-20,1.2872792737600052
2019-06-21,1.270971837590425
2019-06-24,1.2242508326141917
2019-06-25,1.1753282029328012
2019-06-26,1.1562355505155106
2019-06-27,1.1562355505155106
2019-06-28,1.1562355505155106
2019-07-01,1.1381625289619821
2019-07-02,1.1525279421889216
2019-07-03,1.1541851975527093
2019-07-05,1.1605533004788349
2019-07-08,1.1840115096156936
2019-07-09,1.2060334032957196
2019-07-10,1.2121082059479709
2019-07-11,1.1913206414345416
2019-07-12,1.1847191287988252
2019-07-15,1.2324050323279552
2019-07-16,1.2101644790797748
2019-07-17,1.220473836185257
2019-07-18,1.2204842213070215
2019-07-19,1.2094188935593126
2019-07-22,1.2254183285550577
2019-07-23,1.2276528929926398
2019-07-24,1.2377102415972245
2019-07-25,1.2367711001095478
2019-07-26,1.2491308091325264
2019-07-29,1.2077820484614894
2019-07-30,1.2047395265039844
2019-07-31,1.1680736805970526
2019-08-01,1.2121162848003697
2019-08-02,1.1948814408550503
2019-08-05,1.1721624879354606
2019-08-06,1.1983286424064752
2019-08-07,1.2152540302772452
2019-08-08,1.2493999927669028
2019-08-09,1.2722349849606842
2019-08-12,1.2619194288492352
2019-08-13,1.2719031782989185
2019-08-14,1.235854366166768
2019-08-15,1.2344932924554481
2019-08-16,1.2519125978846959
2019-08-19,1.258132743187246
2019-08-20,1.279574688519547
2019-08-21,1.3095390011882917
2019-08-22,1.3076462021200006
2019-08-23,1.2912835599667487
2019-08-26,1.321577391774615
2019-08-27,1.3409770338117963
2019-08-28,1.321160726341672
2019-08-29,1.3173134881230262
2019-08-30,1.3019609239069065
2019-09-03,1.2998353942985699
2019-09-04,1.3026347848654218
2019-09-05,1.3126109793406435
2019-09-06,1.2901233861097894
2019-09-09,1.2478229896013069
2019-09-10,1.2439171603816161
2019-09-11,1.2439171603816161
2019-09-12,1.2439171603816161
2019-09-13,1.2439171603816161
2019-09-16,1.261862414407279
2019-09-17,1.2764219109340016
2019-09-18,1.2943948849504285
2019-09-19,1.2829297936584276
2019-09-20,1.2674505574572084
2019-09-23,1.281672378926259
2019-09-24,1.2634694447176766
2019-09-25,1.292624401120356
2019-09-26,1.2873858751082619
2019-09-27,1.2465705214182712
2019-09-30,1.252504411997783
2019-10-01,1.2466743422345232
2019-10-02,1.2298754014404403
2019-10-03,1.2392898826858503
2019-10-04,1.2623845410208372
2019-10-07,1.2605954725446251
2019-10-08,1.227251255710676
2019-10-09,1.24701705302254
2019-10-10,1.2487103208114894
2019-10-11,1.2638624563271879
2019-10-14,1.2576591436301983
2019-10-15,1.2803963642625662
2019-10-16,1.2582663509265894
2019-10-17,1.2679083914757048
2019-10-18,1.257032718120614
2019-10-21,1.281531304193105
2019-10-22,1.2717658731692127
2019-10-23,1.2522694661396632
2019-10-24,1.338286897150569
2019-10-25,1.3493606473760154
2019-10-28,1.3848397750786732
2019-10-29,1.3595469303983125
2019-10-30,1.3722082762576995
2019-10-31,1.3469452292593576
2019-11-01,1.3709033013097767
2019-11-04,1.3773751072043379
2019-11-05,1.36864177110549
2019-11-06,1.3675786186957413
2019-11-07,1.3632899662494227
2019-11-08,1.3707926617477373
2019-11-11,1.369779817290322
2019-11-12,1.368036770050197
2019-11-13,1.379440629162303
2019-11-14,1.3840654069061915
2019-11-15,1.4046209413253616
2019-11-18,1.3996741456571054
2019-11-19,1.3873464619250249
2019-11-20,1.3740202231418097
2019-11-21,1.3345636671640992
2019-11-22,1.332954283649587
2019-11-25,1.3224010829779065
2019-11-26,1.2945404164840424
2019-11-27,1.3062144556790303
2019-11-29,1.2992144368602128
2019-12-02,1.301670482314712
2019-12-03,1.307113297556405
2019-12-04,1.3143068088503571
2019-12-05,1.3079769723734767
2019-12-06,1.3188304318962016
2019-12-09,1.314065068211399
2019-12-10,1.3406909817521702
2019-12-11,1.3486687109789224
2019-12-12,1.4148226867081777
2019-12-13,1.3880288976223705
2019-12-16,1.4530086738874481
2019-12-17,1.4552369084541135
2019-12-18,1.4747151686090962
2019-12-19,1.504736911023444
2019-12-20,1.53000926093201
2019-12-23,1.5784953151418841
2019-12-24,1.6083898916340118
2019-12-26,1.620922206260637
2019-12-27,1.6122454291447204
2019-12-30,1.5707586724182052
2019-12-31,1.583521749538137
2020-01-02,1.6612818291018363
2020-01-03,1.6775247415079837
2020-01-06,1.6904924042587117
2020-01-07,1.722042486120357
2020-01-08,1.759630363824936
2020-01-09,1.7579605181000277
2020-01-10,1.7382875582806783
2020-01-13,1.8384872075258345
2020-01-14,1.8546552213540093
2020-01-15,1.8228020071201558
2020-01-16,1.8336893806023817
2020-01-17,1.8474743327488747
2020-01-21,1.9205367882671336
2020-01-22,1.9702293141923208
2020-01-23,1.9800637215644112
2020-01-24,1.9428316617490227
2020-01-27,1.8908618136578719
2020-01-28,1.9080502072975878
2020-01-29,1.9353233209734106
2020-01-30,2.0511129681208358
2020-01-31,2.070004706107027
2020-02-03,2.322507462109541
2020-02-04,2.557560363771007
2020-02-05,2.3730887073251306
2020-02-06,2.3686216400417877
2020-02-07,2.3785080638177534
2020-02-10,2.4370778274029874
2020-02-11,2.4405248219387436
2020-02-12,2.498320485197242
2020-02-13,2.5299058241383054
2020-02-14,2.5311064715975498
2020-02-18,2.5753479120718916
2020-02-19,2.6135127392553787
2020-02-20,2.561020905425951
2020-02-21,2.4252624750216754
2020-02-24,2.4327682935125488
2020-02-25,2.3774654564639173
2020-02-26,2.3681473721142545
2020-02-27,2.297621729948496
2020-02-28,2.297621729948496
2020-03-02,2.322140011508667
2020-03-03,2.2961452030800396
2020-03-04,2.3759860522554623
2020-03-05,2.345856915170474
2020-03-06,2.338897687267669
2020-03-09,2.249188476313681
2020-03-10,2.249188476313681
2020-03-11,2.249188476313681
2020-03-12,2.249188476313681
2020-03-13,2.249188476313681
2020-03-16,2.249188476313681
2020-03-17,2.249188476313681
2020-03-18,2.249188476313681
2020-03-19,2.249188476313681
2020-03-20,2.249188476313681
2020-03-23,2.249188476313681
2020-03-24,2.249188476313681
2020-03-25,2.249188476313681
2020-03-26,2.249188476313681
2020-03-27,2.249188476313681
2020-03-30,2.249188476313681
2020-03-31,2.249188476313681
2020-04-01,2.249188476313681
2020-04-02,2.249188476313681
2020-04-03,2.249188476313681
2020-04-06,2.249188476313681
2020-04-07,2.249188476313681
2020-04-08,2.249188476313681
2020-04-09,2.249188476313681
2020-04-13,2.2317913413082486
2020-04-14,2.3486198291546643
2020-04-15,2.4277923034249485
2020-04-16,2.4666006705595254
2020-04-17,2.449974470155106
2020-04-20,2.5656203044863815
2020-04-21,2.426217929667229
2020-04-22,2.4953915381606455
2020-04-23,2.4999074838317235
2020-04-24,2.5819581672923775
2020-04-27,2.665161494971814
2020-04-28,2.5319958154878446
2020-04-29,2.513933439386808
2020-04-30,2.4904286016920585
2020-05-01,2.516441386471418
2020-05-04,2.637444352188167
2020-05-05,2.6395409536729053
2020-05-06,2.6790375929612806
2020-05-07,2.779287136925978
2020-05-08,2.787639097274413
2020-05-11,2.8301791485028516
2020-05-12,2.8196677009981546
2020-05-13,2.8051473363028494
2020-05-14,2.8242811191662565
2020-05-15,2.8378092203894
2020-05-18,2.7723159112105864
2020-05-19,2.844944143202807
2020-05-20,2.9238424788318804
2020-05-21,2.8915445584700015
2020-05-22,2.945971224699381
2020-05-26,2.8829440478667774
2020-05-27,2.821611889582093
2020-05-28,2.873202915181863
2020-05-29,3.4259438431047187
2020-06-01,3.771148396594853
2020-06-02,3.6539913874157914
2020-06-03,3.789205964582257
2020-06-04,3.6714991791646865
2020-06-05,3.5660422273390013
2020-06-08,3.655388370978887
2020-06-09,3.640656030758241
2020-06-10,3.7424514895276024
2020-06-11,3.6467723565793384
2020-06-12,3.6058549627367515
2020-06-15,3.7562696737722323
2020-06-16,3.765393618405184
2020-06-17,3.779035902224385
2020-06-18,3.956352717458137
2020-06-19,3.86736692184256
2020-06-22,3.9630875875575207
2020-06-23,3.9597895950638433
2020-06-24,3.9127211041765757
2020-06-25,4.010550407402807
2020-06-26,3.777812395799624
2020-06-29,3.753716430289991
2020-06-30,3.868388366823432
2020-07-01,3.9552783147766326
2020-07-02,4.016201385440701
2020-07-06,4.079429133449739
2020-07-07,4.063495856693545
2020-07-08,4.344292042749857
2020-07-09,4.515968561738967
2020-07-10,4.466530411675961
2020-07-13,4.16606826448026
2020-07-14,4.096472220340786
2020-07-15,4.0509683390534015
2020-07-16,4.003707714693136
2020-07-17,4.059225808934507
2020-07-20,4.3461061418653415
2020-07-21,4.213087882356026
2020-07-22,4.237462944584511
2020-07-23,4.106960494104832
2020-07-24,3.9123372589804024
2020-07-27,4.096978066029608
2020-07-28,4.0103576195146475
2020-07-29,4.083822479421724
2020-07-30,4.110218798878115
2020-07-31,4.0499325769762144
2020-08-03,4.16494313962634
2020-08-04,4.165834194985173
2020-08-05,4.1992274684901245
2020-08-06,4.165333858464942
2020-08-07,4.006789141214162
2020-08-10,3.8446969348473266
2020-08-11,3.7900850649465347
2020-08-12,4.0130442188278295
2020-08-13,4.094924889684158
2020-08-14,4.131650056941709
2020-08-17,4.368615877184254
2020-08-18,4.41293834042296
2020-08-19,4.3878999316790885
2020-08-20,4.582924055871919
2020-08-21,4.668820993857034
2020-08-24,4.606077531098888
2020-08-25,4.700313534639603
2020-08-26,4.852429224749795
2020-08-27,4.901910167720837
2020-08-28,4.914960240937177
2020-08-31,5.392513874777094
2020-09-01,5.28318526875133
2020-09-02,4.844044361081706
2020-09-03,4.666945059884591
2020-09-04,4.666945059884591
2020-09-08,4.670339962823521
2020-09-09,4.714764829114604
2020-09-10,4.702009696348409
2020-09-11,4.679215354620336
2020-09-14,4.702997308980949
2020-09-15,4.7545371893851645
2020-09-16,4.746543684907295
2020-09-17,4.693498682359468
2020-09-18,4.711189486433003
2020-09-21,4.783740160090217
2020-09-22,4.838773388143041
2020-09-23,4.74411746976667
2020-09-24,4.708512337935883
2020-09-25,4.756554460304605
2020-09-28,4.78516729617618
2020-09-29,4.779030185549794
2020-09-30,4.806708925937695
2020-10-01,4.868017334072537
2020-10-02,4.813302237524316
2020-10-05,4.877168110213309
2020-10-06,4.872723092725279
2020-10-07,4.915302241298511
2020-10-08,4.901769769801151
2020-10-09,4.935216063658038
2020-10-12,4.962455515885288
2020-10-13,5.024118647025073
2020-10-14,4.953850916395275
2020-10-15,4.911597694254612
2020-10-16,4.915439364513267
2020-10-19,4.8920249751767635
2020-10-20,4.878126602341583
2020-10-21,4.787146558204198
2020-10-22,4.751172690500333
2020-10-23,4.751172690500333
2020-10-26,4.719059807160093
2020-10-27,4.717297805148324
2020-10-28,4.668874286314222
2020-10-29,4.739106522850365
2020-10-30,4.63118074741035
2020-11-02,4.638512167411836
2020-11-03,4.6688042356712955
2020-11-04,4.776079096465063
2020-11-05,5.04050523974659
2020-11-06,5.080587523040734
2020-11-09,4.916820004570419
2020-11-10,4.81334832893902
2020-11-11,4.883947659688232
2020-11-12,4.848740824071684
2020-11-13,4.8520009443813805
2020-11-16,4.920236173294519
2020-11-17,4.901206086106331
2020-11-18,4.89643591215511
2020-11-19,4.908385964248151
2020-11-20,4.853028216865237
2020-11-23,4.912726007155588
2020-11-24,4.993212347845557
2020-11-25,4.953044234885031
2020-11-27,4.9467266603279665
2020-11-30,4.92497894213852
2020-12-01,4.961576796221626
2020-12-02,5.1282135296380105
2020-12-03,5.099136503116891
2020-12-04,5.2879376573772685
2020-12-07,5.23882327856181
2020-12-08,5.206726725432513
2020-12-09,5.219616545039862
2020-12-10,5.2450156545013105
2020-12-11,5.077022878905803
2020-12-14,5.003702410568169
2020-12-15,4.945430911455279
2020-12-16,4.932901089051498
2020-12-17,5.196896499250266
2020-12-18,5.225209654896983
2020-12-21,5.330062605051763
2020-12-22,5.5198880983136895
2020-12-23,5.374631213289005
2020-12-24,5.349441935555505
2020-12-28,5.193691149934305
2020-12-29,5.214240726669346
2020-12-30,5.267080163786774
2020-12-31,5.116367715303497
2021-01-04,5.061496039369372
2021-01-05,5.241516867426904
2021-01-06,5.0472066145031524
2021-01-07,5.229210764118549
2021-01-08,5.087097880246969
2021-01-11,5.043092008557368
2021-01-12,5.349497783211576
2021-01-13,5.406601418069659
2021-01-14,5.255515199258777
2021-01-15,5.132298341116991
2021-01-19,5.2238105441459926
2021-01-20,5.2446811507826325
2021-01-21,5.199638874195276
2021-01-22,5.130560925981506
2021-01-25,5.0798930109330165
2021-01-26,5.086445274632568
2021-01-27,5.032282025278176
2021-01-28,4.950078398392459
2021-01-29,4.8301926408874465
2021-02-01,4.945112474464248
2021-02-02,5.09174521776921
2021-02-03,5.022797166479595
2021-02-04,5.075842782797494
2021-02-05,5.07683323660981
2021-02-08,5.09564222478031
2021-02-09,5.071052527869837
2021-02-10,5.029463891558372
2021-02-11,5.087982575391387
2021-02-12,5.18315510407369
2021-02-16,5.1298289130360315
2021-02-17,5.035987562600884
2021-02-18,5.043777159803918
2021-02-19,5.043212663783698
2021-02-22,4.845384477034513
2021-02-23,4.664710250397686
2021-02-24,4.664710250397686
2021-02-25,4.664710250397686
2021-02-26,4.664710250397686
2021-03-01,4.677721185693284
2021-03-02,4.586739082967757
2021-03-03,4.542490702762651
2021-03-04,4.421542966189062
2021-03-05,4.406129914726762
2021-03-08,4.292822837554285
2021-03-09,4.4290753057814545
2021-03-10,4.365657443985808
2021-03-11,4.458202747652014
2021-03-12,4.410730190884069
2021-03-15,4.429923982153166
2021-03-16,4.497361642077585
2021-03-17,4.552447774179391
2021-03-18,4.4361285313431615
2021-03-19,4.450373791229321
2021-03-22,4.503601570939822
2021-03-23,4.40166478778683
2021-03-24,4.447757378691908
2021-03-25,4.434281249629784
2021-03-26,4.521388061866988
2021-03-29,4.510021732228058
2021-03-30,4.494582047671832
2021-03-31,4.5694726046159975
2021-04-01,4.666171768876438
2021-04-05,4.751151904822867
2021-04-06,4.68238311413141
2021-04-07,4.702762717207115
2021-04-08,4.73296979781418
2021-04-09,4.7712601223007045
2021-04-12,4.632769952226498
2021-04-13,4.627058722965381
2021-04-14,4.5814329466387615
2021-04-15,4.613281374696859
2021-04-16,4.597138533519038
2021-04-19,4.511870996687141
2021-04-20,4.490929304941224
2021-04-21,4.490929304941224
2021-04-22,4.490929304941224
2021-04-23,4.490929304941224
2021-04-26,4.530769091328935
2021-04-27,4.5102915239850265
2021-04-28,4.511342664719856
2021-04-29,4.491910885470823
2021-04-30,4.451891173686658
2021-05-03,4.460831088893442
2021-05-04,4.3439500314345425
2021-05-05,4.3426517031618275
2021-05-06,4.377155553586806
2021-05-07,4.435388234168336
2021-05-10,4.245778549390224
2021-05-11,4.250857981489378
2021-05-12,4.179776039708281
2021-05-13,4.179776039708281
2021-05-14,4.179776039708281
2021-05-17,4.181611516744457
2021-05-18,4.153323208703832
2021-05-19,4.158747204408774
2021-05-20,4.182600323726579
2021-05-21,4.176189940190622
2021-05-24,4.21352038505643
2021-05-25,4.223982162951996
2021-05-26,4.218431387866206
2021-05-27,4.238886850617103
2021-05-28,4.224867332019587
2021-06-01,4.231940503878126
2021-06-02,4.227426383034046
2021-06-03,4.21164882156219
2021-06-04,4.231356454731145
2021-06-07,4.223386373368275
2021-06-08,4.216914211127709
2021-06-09,4.200232799188621
2021-06-10,4.207597649775213
2021-06-11,4.203598647941066
2021-06-14,4.235202477610528
2021-06-15,4.208095573636408
2021-06-16,4.191753600598766
2021-06-17,4.309321541788558
2021-06-18,4.284319937430327
2021-06-21,4.2682467027590665
2021-06-22,4.344671757350351
2021-06-23,4.3698935171431526
2021-06-24,4.395936103306754
2021-06-25,4.369410654937249
2021-06-28,4.529004411704214
2021-06-29,4.52140995722214
2021-06-30,4.5046322188256
2021-07-01,4.551496697947419
2021-07-02,4.584826005084904
2021-07-06,4.603265491802642
2021-07-07,4.557260931228978
2021-07-08,4.486052551439176
2021-07-09,4.519271020823554
2021-07-12,4.582688920351302
2021-07-13,4.548294890024204
2021-07-14,4.485457106944651
2021-07-15,4.404620490353374
2021-07-16,4.393622979055186
2021-07-19,4.379460896992187
2021-07-20,4.416633604148188
2021-07-21,4.444797945382492
2021-07-22,4.476391597165721
2021-07-23,4.554013199145116
2021-07-26,4.564844190914093
2021-07-27,4.535293175663776
2021-07-28,4.553940315784901
2021-07-29,4.509376112095593
2021-07-30,4.5124381518914625
2021-08-02,4.49253922327423
2021-08-03,4.496036024656117
2021-08-04,4.5345426826904625
2021-08-05,4.552321983439212
2021-08-06,4.5459527505053545
2021-08-09,4.541685038052199
2021-08-10,4.528886109709841
2021-08-11,4.529598174599274
2021-08-12,4.548861833961295
2021-08-13,4.559016813277017
2021-08-16,4.575111970679842
2021-08-17,4.532537279039851
2021-08-18,4.516215199821417
2021-08-19,4.537210084263098
2021-08-20,4.541294529967196
2021-08-23,4.581898478880977
2021-08-24,4.63697224710792
2021-08-25,4.643066997844046
2021-08-26,4.549765445294961
2021-08-27,4.611197298475092
2021-08-30,4.663024308352798
2021-08-31,4.6847286442749905
2021-09-01,4.636070236477679
2021-09-02,4.704212184323831
2021-09-03,4.763890720075836
2021-09-07,4.714706513229674
2021-09-08,4.734560498016076
2021-09-09,4.754015219768507
2021-09-10,4.610004291501115
2021-09-13,4.554971944211948
2021-09-14,4.6051240218701235
2021-09-15,4.6223042443134315
2021-09-16,4.709593151814036
2021-09-17,4.692066046748685
2021-09-20,4.670394951311566
2021-09-21,4.723235195804113
2021-09-22,4.832342662655552
2021-09-23,4.819615285293034
2021-09-24,4.802379485530435
2021-09-27,4.651451998719738
2021-09-28,4.525982786254298
2021-09-29,4.526915840209977
2021-09-30,4.613143199490761
2021-10-01,4.678137077103482
2021-10-04,4.495959688780053
2021-10-05,4.579083621653096
2021-10-06,4.603725792408737
2021-10-07,4.582728007551699
2021-10-08,4.551838507252665
2021-10-11,4.598014781961215
2021-10-12,4.6735018157548485
2021-10-13,4.850518993328604
2021-10-14,4.803140060689486
2021-10-15,4.833781077510092
2021-10-18,4.901642776500786
2021-10-19,4.904500620678649
2021-10-20,4.918981036232612
2021-10-21,4.945883752607918
2021-10-22,4.962489547648697
2021-10-25,4.933799965851868
2021-10-26,4.947724545079787
2021-10-27,4.844584869814737
2021-10-28,4.925161303829876
2021-10-29,5.054769747466091
2021-11-01,5.0208706596582875
2021-11-02,5.01566276842637
2021-11-03,4.957535727453422
2021-11-04,5.017923799424025
2021-11-05,5.339892743619499
2021-11-08,5.495353509957406
2021-11-09,5.574307860508942
2021-11-10,5.409433833931956
2021-11-11,5.456152456898094
2021-11-12,5.519629819121594
2021-11-15,5.491028194194353
2021-11-16,5.546537160964876
2021-11-17,5.468292871552675
2021-11-18,5.488527462996204
2021-11-19,5.547048215799467
2021-11-22,5.363541033783511
2021-11-23,5.177160528259927
2021-11-24,5.215584149663391
2021-11-26,5.1776667106046785
2021-11-29,5.291653940737767
2021-11-30,5.223532063198631
2021-12-01,5.027647074494054
2021-12-02,5.06996042260902
2021-12-03,4.926763968613523
2021-12-06,4.804290220063921
2021-12-07,4.804290220063921
2021-12-08,4.804290220063921
2021-12-09,4.804290220063921
2021-12-10,4.804290220063921
2021-12-13,4.680991126305735
2021-12-14,4.620501463553132
2021-12-15,4.797755385777199
2021-12-16,4.596705729870605
2021-12-17,4.66262775990429
2021-12-20,4.704541476317026
2021-12-21,4.781996463739491
2021-12-22,4.869608497031706
2021-12-23,4.889831310704953
2021-12-27,5.0100438116526185
2021-12-28,4.914171583579541
2021-12-29,4.942709359184316
2021-12-30,4.884452940769727
2021-12-31,4.887053547198486
2022-01-03,4.93118884659496
2022-01-04,4.931698569198447
2022-01-05,4.711092478626746
2022-01-06,4.727836317304182
2022-01-07,4.61672597725968
2022-01-10,4.5597234249228435
2022-01-11,4.563474989205753
2022-01-12,4.574487919825046
2022-01-13,4.580660033991787
2022-01-14,4.601717524175446
2022-01-18,4.504200044696759
2022-01-19,4.469467311780541
2022-01-20,4.443937352811512
2022-01-21,4.443937352811512
2022-01-24,4.443937352811512
2022-01-25,4.443937352811512
2022-01-26,4.443937352811512
2022-01-27,4.443937352811512
2022-01-28,4.443937352811512
2022-01-31,4.443937352811512
2022-02-01,4.443937352811512
2022-02-02,4.443937352811512
2022-02-03,4.443937352811512
2022-02-04,4.443937352811512
2022-02-07,4.443937352811512
2022-02-08,4.443937352811512
2022-02-09,4.443937352811512
2022-02-10,4.443937352811512
2022-02-11,4.443937352811512
2022-02-14,4.443937352811512
2022-02-15,4.443937352811512
2022-02-16,4.443937352811512
2022-02-17,4.443937352811512
2022-02-18,4.443937352811512
2022-02-22,4.443937352811512
2022-02-23,4.443937352811512
2022-02-24,4.443937352811512
2022-02-25,4.443937352811512
2022-02-28,4.443937352811512
2022-03-01,4.443937352811512
2022-03-02,4.443937352811512
2022-03-03,4.443937352811512
2022-03-04,4.443937352811512
2022-03-07,4.443937352811512
2022-03-08,4.443937352811512
2022-03-09,4.443937352811512
2022-03-10,4.443937352811512
2022-03-11,4.443937352811512
2022-03-14,4.443937352811512
2022-03-15,4.443937352811512
2022-03-16,4.443937352811512
2022-03-17,4.443937352811512
2022-03-18,4.443937352811512
2022-03-21,4.443937352811512
2022-03-22,4.443937352811512
2022-03-23,4.443937352811512
2022-03-24,4.443937352811512
2022-03-25,4.443937352811512
2022-03-28,4.443937352811512
2022-03-29,4.443937352811512
2022-03-30,4.443937352811512
2022-03-31,4.443937352811512
2022-04-01,4.443937352811512
2022-04-04,4.443937352811512
2022-04-05,4.443937352811512
2022-04-06,4.443937352811512
2022-04-07,4.443937352811512
2022-04-08,4.443937352811512
2022-04-11,4.443937352811512
2022-04-12,4.443937352811512
2022-04-13,4.443937352811512
2022-04-14,4.443937352811512
2022-04-18,4.443937352811512
2022-04-19,4.443937352811512
2022-04-20,4.443937352811512
2022-04-21,4.443937352811512
2022-04-22,4.443937352811512
2022-04-25,4.443937352811512
2022-04-26,4.443937352811512
2022-04-27,4.443937352811512
2022-04-28,4.443937352811512
2022-04-29,4.443937352811512
2022-05-02,4.443937352811512
2022-05-03,4.443937352811512
2022-05-04,4.443937352811512
2022-05-05,4.443937352811512
2022-05-06,4.443937352811512
2022-05-09,4.443937352811512
2022-05-10,4.443937352811512
2022-05-11,4.443937352811512
2022-05-12,4.443937352811512
2022-05-13,4.443937352811512
2022-05-16,4.443937352811512
2022-05-17,4.443937352811512
2022-05-18,4.443937352811512
2022-05-19,4.443937352811512
2022-05-20,4.443937352811512
2022-05-23,4.443937352811512
2022-05-24,4.443937352811512
2022-05-25,4.443937352811512
2022-05-26,4.443937352811512
2022-05-27,4.443937352811512
2022-05-31,4.443937352811512
2022-06-01,4.443937352811512
2022-06-02,4.443937352811512
2022-06-03,4.443937352811512
2022-06-06,4.443937352811512
2022-06-07,4.443937352811512
2022-06-08,4.443937352811512
2022-06-09,4.443937352811512
2022-06-10,4.443937352811512
2022-06-13,4.443937352811512
2022-06-14,4.443937352811512
2022-06-15,4.443937352811512
2022-06-16,4.443937352811512
2022-06-17,4.443937352811512
2022-06-21,4.443937352811512
2022-06-22,4.443937352811512
2022-06-23,4.443937352811512
2022-06-24,4.443937352811512
2022-06-27,4.443937352811512
2022-06-28,4.443937352811512
2022-06-29,4.443937352811512
2022-06-30,4.443937352811512
2022-07-01,4.443937352811512
2022-07-05,4.443937352811512
2022-07-06,4.443937352811512
2022-07-07,4.443937352811512
2022-07-08,4.443937352811512
2022-07-11,4.443937352811512
2022-07-12,4.443937352811512
2022-07-13,4.443937352811512
2022-07-14,4.443937352811512
2022-07-15,4.443937352811512
2022-07-18,4.443937352811512
2022-07-19,4.443937352811512
2022-07-20,4.443937352811512
2022-07-21,4.443937352811512
2022-07-22,4.443937352811512
2022-07-25,4.443937352811512
2022-07-26,4.443937352811512
2022-07-27,4.443937352811512
2022-07-28,4.443937352811512
2022-07-29,4.443937352811512
2022-08-01,4.443937352811512
2022-08-02,4.443937352811512
2022-08-03,4.443937352811512
2022-08-04,4.443937352811512
2022-08-05,4.443937352811512
2022-08-08,4.443937352811512
2022-08-09,4.443937352811512
2022-08-10,4.443937352811512
2022-08-11,4.443937352811512
2022-08-12,4.443937352811512
2022-08-15,4.443937352811512
2022-08-16,4.443937352811512
2022-08-17,4.443937352811512
2022-08-18,4.443937352811512
2022-08-19,4.443937352811512
2022-08-22,4.443937352811512
2022-08-23,4.443937352811512
2022-08-24,4.443937352811512
2022-08-25,4.443937352811512
2022-08-26,4.443937352811512
2022-08-29,4.443937352811512
2022-08-30,4.443937352811512
2022-08-31,4.443937352811512
2022-09-01,4.443937352811512
2022-09-02,4.443937352811512
2022-09-06,4.443937352811512
2022-09-07,4.443937352811512
2022-09-08,4.443937352811512
2022-09-09,4.443937352811512
2022-09-12,4.443937352811512
2022-09-13,4.443937352811512
2022-09-14,4.443937352811512
2022-09-15,4.443937352811512
2022-09-16,4.443937352811512
2022-09-19,4.443937352811512
2022-09-20,4.443937352811512
2022-09-21,4.443937352811512
2022-09-22,4.443937352811512
2022-09-23,4.443937352811512
2022-09-26,4.443937352811512
2022-09-27,4.443937352811512
2022-09-28,4.443937352811512
2022-09-29,4.443937352811512
2022-09-30,4.443937352811512
2022-10-03,4.443937352811512
2022-10-04,4.443937352811512
2022-10-05,4.443937352811512
2022-10-06,4.443937352811512
2022-10-07,4.443937352811512
2022-10-10,4.443937352811512
2022-10-11,4.443937352811512
2022-10-12,4.443937352811512
2022-10-13,4.443937352811512
2022-10-14,4.443937352811512
2022-10-17,4.443937352811512
2022-10-18,4.443937352811512
2022-10-19,4.443937352811512
2022-10-20,4.443937352811512
2022-10-21,4.443937352811512
2022-10-24,4.443937352811512
2022-10-25,4.443937352811512
2022-10-26,4.443937352811512
2022-10-27,4.443937352811512
2022-10-28,4.443937352811512
2022-10-31,4.443937352811512
2022-11-01,4.443937352811512
2022-11-02,4.443937352811512
2022-11-03,4.443937352811512
2022-11-04,4.443937352811512
2022-11-07,4.443937352811512
2022-11-08,4.443937352811512
2022-11-09,4.443937352811512
2022-11-10,4.443937352811512
2022-11-11,4.443937352811512
2022-11-14,4.443937352811512
2022-11-15,4.443937352811512
2022-11-16,4.443937352811512
2022-11-17,4.443937352811512
2022-11-18,4.443937352811512
2022-11-21,4.443937352811512
2022-11-22,4.443937352811512
2022-11-23,4.443937352811512
2022-11-25,4.443937352811512
2022-11-28,4.443937352811512
2022-11-29,4.443937352811512
2022-11-30,4.443937352811512
2022-12-01,4.443937352811512
2022-12-02,4.443937352811512
2022-12-05,4.443937352811512
2022-12-06,4.443937352811512
2022-12-07,4.443937352811512
2022-12-08,4.443937352811512
2022-12-09,4.443937352811512
2022-12-12,4.443937352811512
2022-12-13,4.443937352811512
2022-12-14,4.443937352811512
2022-12-15,4.443937352811512
2022-12-16,4.443937352811512
2022-12-19,4.443937352811512
2022-12-20,4.443937352811512
2022-12-21,4.443937352811512
2022-12-22,4.443937352811512
2022-12-23,4.443937352811512
2022-12-27,4.443937352811512
2022-12-28,4.443937352811512
2022-12-29,4.443937352811512
2022-12-30,4.443937352811512
2023-01-03,4.443937352811512
2023-01-04,4.443937352811512
2023-01-05,4.443937352811512
2023-01-06,4.443937352811512
2023-01-09,4.443937352811512
2023-01-10,4.443937352811512
2023-01-11,4.443937352811512
2023-01-12,4.443937352811512
2023-01-13,4.443937352811512
2023-01-17,4.443937352811512
2023-01-18,4.443937352811512
2023-01-19,4.443937352811512
2023-01-20,4.443937352811512
2023-01-23,4.443937352811512
2023-01-24,4.443937352811512
2023-01-25,4.443937352811512
2023-01-26,4.443937352811512
2023-01-27,4.443937352811512
2023-01-30,4.443937352811512
2023-01-31,4.443937352811512
2023-02-01,4.443937352811512
2023-02-02,4.443937352811512
2023-02-03,4.443937352811512
2023-02-06,4.468561615782631
2023-02-07,4.650558034167785
2023-02-08,4.556415144722258
2023-02-09,4.504876566702659
2023-02-10,4.345483459574633
2023-02-13,4.464233190010846
2023-02-14,4.591167187097778
2023-02-15,4.541424328486828
2023-02-16,4.403821980577298
2023-02-17,4.343491807495657
2023-02-21,4.2556815935660905
2023-02-22,4.2548183805852915
2023-02-23,4.563892872133511
2023-02-24,4.523524700671636
2023-02-27,4.530949479745312
2023-02-28,4.536364537847442
2023-03-01,4.4709530308748935
2023-03-02,4.54410820679899
2023-03-03,4.6767934884976405
2023-03-06,4.63858691805882
2023-03-07,4.608013016442913
2023-03-08,4.7064500945126895
2023-03-09,4.605098609045694
2023-03-10,4.540316350991628
2023-03-13,4.549651410104079
2023-03-14,4.753930382471175
2023-03-15,4.796318545128889
2023-03-16,4.984232820202362
2023-03-17,4.9420097259033895
2023-03-20,4.9753078292035795
2023-03-21,5.036125380165467
2023-03-22,5.049255751041086
2023-03-23,5.156158394407939
2023-03-24,5.123636997934733
2023-03-27,5.0761020461664845
2023-03-28,5.048836269613172
2023-03-29,5.141151994443931
2023-03-30,5.200301529519864
2023-03-31,5.269606287405235
2023-04-03,5.297188996262294
2023-04-04,5.253455898652652
2023-04-05,5.170848255461385
2023-04-06,5.218183616580427
2023-04-10,5.267113633743234
2023-04-11,5.217345091201919
2023-04-12,5.146349394221263
2023-04-13,5.185089081742836
2023-04-14,5.224167997726948
2023-04-17,5.232769238264536
2023-04-18,5.2973594257902
2023-04-19,5.311018516394929
2023-04-20,5.205223560015613
2023-04-21,5.205630698212971
2023-04-24,5.1967417448726785
2023-04-25,5.076396127158166
2023-04-26,5.1650496059935165
2023-04-27,5.3874858304660425
2023-04-28,5.455034537679296
2023-05-01,5.598031491966166
2023-05-02,5.497104428450715
2023-05-03,5.438851885253509
2023-05-04,5.389914188733787
2023-05-05,5.504417787886377
2023-05-08,5.557979252441184
2023-05-09,5.496691826366387
2023-05-10,5.528306379252827
2023-05-11,5.513506229448634
2023-05-12,5.474939449206028
2023-05-15,5.5739438351752835
2023-05-16,5.601449322138361
2023-05-17,5.728889107613865
2023-05-18,5.918054846771122
2023-05-19,5.865800573603204
2023-05-22,5.874194542318012
2023-05-23,5.811579699239177
2023-05-24,5.811956612785261
2023-05-25,6.6299618207154545
2023-05-26,6.795218289807391
2023-05-30,6.922842655430186
2023-05-31,6.694235395653267
2023-06-01,6.953406748412105
2023-06-02,6.906089136620119
2023-06-05,6.881326666350359
2023-06-06,6.824312237023204
2023-06-07,6.648867589330392
2023-06-08,6.765936816395367
2023-06-09,6.7961680626700804
2023-06-12,6.912724908405831
2023-06-13,7.07902627534161
2023-06-14,7.303481728885259
2023-06-15,7.323033159528736
2023-06-16,7.32168828390151
2023-06-20,7.463011707174557
2023-06-21,7.363647286524452
2023-06-22,7.383020548078564
2023-06-23,7.321413032513181
2023-06-26,7.08483489473797
2023-06-27,7.274686587803906
2023-06-28,7.1819223281953395
2023-06-29,7.1254468954803105
2023-06-30,7.3197293356898125
2023-07-03,7.32521236555611
2023-07-05,7.370394811075718
2023-07-06,7.331733715912282
2023-07-07,7.364769170434217
2023-07-10,7.3539673487058685
2023-07-11,7.405820544350094
2023-07-12,7.639097509727899
2023-07-13,7.887779353037404
2023-07-14,7.803370735083988
2023-07-17,7.920958029801021
2023-07-18,8.040800803311821
2023-07-19,8.022547122486705
2023-07-20,7.7666594370706346
2023-07-21,7.582457429458392
2023-07-24,7.592583522812522
2023-07-25,7.7065648659575245
2023-07-26,7.6823159459124355
2023-07-27,7.730173510111749
2023-07-28,7.820973603455155
2023-07-31,7.777567097954927
2023-08-01,7.815342928523609
2023-08-02,7.4248654114220995
2023-08-03,7.464639322578261
2023-08-04,7.6246457174386775
2023-08-07,7.83158749737655
2023-08-08,7.701467907942833
2023-08-09,7.108015098363701
2023-08-10,7.108015098363701
2023-08-11,7.108015098363701
2023-08-14,7.189551725382613
2023-08-15,7.165245605105661
2023-08-16,7.135512227511589
2023-08-17,7.032340778042586
2023-08-18,7.021532221098724
2023-08-21,7.054056938412563
2023-08-22,7.087962706379724
2023-08-23,7.134055422228779
2023-08-24,7.053718534672722
2023-08-25,7.074414539494378
2023-08-28,7.109959828906445
2023-08-29,7.1788482478995865
2023-08-30,7.236080960751475
2023-08-31,7.226000636406009
2023-09-01,7.229702660357066
2023-09-05,7.16247826667179
2023-09-06,7.080718425343157
2023-09-07,7.092287459874271
2023-09-08,7.075628021904754
2023-09-11,7.076286259474097
2023-09-12,7.022642724631412
2023-09-13,6.955377814717345
2023-09-14,7.074593324701398
2023-09-15,7.023473466287587
2023-09-18,7.058773789555957
2023-09-19,6.826496894564447
2023-09-20,6.789793738215996
2023-09-21,6.789793738215996
2023-09-22,6.789793738215996
2023-09-25,6.764719864819776
2023-09-26,6.78442254693813
2023-09-27,6.8108821965756725
2023-09-28,6.845727062279797
2023-09-29,6.854989173121329
2023-10-02,6.862091271542273
2023-10-03,6.749725996299892
2023-10-04,6.799011502098482
2023-10-05,6.809728249700036
2023-10-06,6.944415840966128
2023-10-09,7.02402462586681
2023-10-10,7.043467892325805
2023-10-11,7.167641898089615
2023-10-12,7.169858442051634
2023-10-13,7.144602840220124
2023-10-16,7.182685901265918
2023-10-17,7.16152151606725
2023-10-18,7.163006675707061
2023-10-19,7.109814998615608
2023-10-20,7.0380673305355685
2023-10-23,7.004940104932455
2023-10-24,7.063567562314278
2023-10-25,6.960437643958995
2023-10-26,6.89195899557652
2023-10-27,6.885059515232203
2023-10-30,6.901690108505855
2023-10-31,6.905847609241848
2023-11-01,6.921411985713187
2023-11-02,6.928341321078844
2023-11-03,6.919173341132595
2023-11-06,6.8812540245659015
2023-11-07,6.9915886051529315
2023-11-08,7.004100751503273
2023-11-09,6.943862258872519
2023-11-10,7.069638475625674
2023-11-13,7.1706278982915235
2023-11-14,7.298605716282453
2023-11-15,7.253961274773267
2023-11-16,7.179957103241588
2023-11-17,7.231568924899545
2023-11-20,7.358272907565099
2023-11-21,7.124504823071275
2023-11-22,7.117703634696223
2023-11-24,7.055260994145328
2023-11-27,7.024464316285082
2023-11-28,7.171184350698477
2023-11-29,7.597143088572375
2023-11-30,7.67881051154184
2023-12-01,7.67960209873643
2023-12-04,7.4790650366201135
2023-12-05,7.507982413276354
2023-12-06,7.516218309584014
2023-12-07,7.529944896519487
2023-12-08,7.573504021760526
2023-12-11,7.701773368911763
2023-12-12,7.743935202045545
2023-12-13,7.769604558839095
2023-12-14,7.80831593297458
2023-12-15,7.911150038962745
2023-12-18,7.899403240609514
2023-12-19,7.892365598270935
2023-12-20,7.738849280317247
2023-12-21,7.840260581642438
2023-12-22,7.822064910736467
2023-12-26,7.87681524061579
2023-12-27,7.9329709997055815
2023-12-28,7.9040598963601925
2023-12-29,7.809259758761167
2024-01-02,7.5048148344063925
2024-01-03,7.410485531822516
2024-01-04,7.410485531822516
2024-01-05,7.410485531822516
2024-01-08,7.70209468530276
2024-01-09,7.967118535943825
2024-01-10,8.069757063316272
2024-01-11,8.092508804388107
2024-01-12,8.036757853489242
2024-01-16,8.401532422414526
2024-01-17,8.29189528008451
2024-01-18,8.458501375434293
2024-01-19,8.872953355268924
2024-01-22,8.832683018605813
2024-01-23,8.818572738957023
2024-01-24,9.123397019547753
2024-01-25,9.076932721559345
2024-01-26,8.949292573590494
2024-01-29,9.116990897616681
2024-01-30,8.974675660239395
2024-01-31,8.729139575647574
2024-02-01,8.903842211484342
2024-02-02,9.155159799356731
2024-02-05,9.048727806560946
2024-02-06,8.875510306567413
2024-02-07,9.186781620426967
2024-02-08,9.222179115628402
2024-02-09,9.39747268068546
2024-02-12,9.264017218411894
2024-02-13,9.2711651022924
2024-02-14,9.638303846373933
2024-02-15,9.540463538393151
2024-02-16,9.432695069442858
2024-02-20,9.135416731587553
2024-02-21,8.74508950096142
2024-02-22,9.208904991499885
2024-02-23,9.067939027443721
2024-02-26,9.020848080238443
2024-02-27,9.051754153707979
2024-02-28,8.955801631656751
2024-02-29,9.458051695822757
2024-03-01,9.900100380342295
2024-03-04,10.135508199195472
2024-03-05,10.16986937899989
2024-03-06,10.466392202514704
2024-03-07,10.705722990345599
2024-03-08,10.316037031199437
2024-03-11,9.981436392135274
2024-03-12,10.436355729970881
2024-03-13,10.154946378588992
2024-03-14,9.992108727173004
2024-03-15,9.986190705189156
2024-03-18,10.020373024518802
2024-03-19,10.072532771217617
2024-03-20,10.126405940662611
2024-03-21,10.185201928194767
2024-03-22,10.343061871194118
2024-03-25,10.527015043436023
2024-03-26,10.282341246065425
2024-03-27,9.992571390230449
2024-03-28,10.024577722491546
2024-04-01,10.019154671109973
2024-04-02,10.010886535923834
2024-04-03,10.211924906928504
2024-04-04,10.03691522700553
2024-04-05,10.299568076371052
2024-04-08,10.48755188318175
2024-04-09,10.342272766961802
2024-04-10,10.32920095554179
2024-04-11,10.467181064074236
2024-04-12,10.273282989722905
2024-04-15,9.926090403368686
2024-04-16,9.998960289914226
2024-04-17,9.783809385605846
2024-04-18,9.545050221991083
2024-04-19,9.451092924854072
2024-04-22,9.510638669844987
2024-04-23,9.570791782927433
2024-04-24,9.601984052929401
2024-04-25,9.506351268610688
2024-04-26,9.988958080946736
2024-04-29,9.812459309834841
2024-04-30,9.711486192487
2024-05-01,9.742107428014739
2024-05-02,9.828137622318764
2024-05-03,9.845657718737293
2024-05-06,9.87154798651995
2024-05-07,9.967486773053091
2024-05-08,9.911289668851516
2024-05-09,9.926531620963111
2024-05-10,9.886936119915642
2024-05-13,9.903677191997716
2024-05-14,9.937650800495259
2024-05-15,10.000409861068196
2024-05-16,10.049455767784304
2024-05-17,10.10641154174028
2024-05-20,10.13730017756335
2024-05-21,10.16789672966658
2024-05-22,10.122064930068815
2024-05-23,10.034205664668576
2024-05-24,10.07548885551361
2024-05-28,10.122673596377444
2024-05-29,10.105627717418376
2024-05-30,9.989439243754134
2024-05-31,10.001468998538378
2024-06-03,10.018694121042612
2024-06-04,10.038940690146834
2024-06-05,10.093127329185158
2024-06-06,10.132724276619701
2024-06-07,10.061618289459147
2024-06-10,10.086458566619736
2024-06-11,10.134792016239071
2024-06-12,10.17349916795784
2024-06-13,10.090425497187383
2024-06-14,10.140126705576503
2024-06-17,10.153241635634863
2024-06-18,10.084955452830474
2024-06-20,10.122608510375077
2024-06-21,10.212318799366102
2024-06-24,10.21406963662864
2024-06-25,10.360431497883908
2024-06-26,10.354948484479582
2024-06-27,10.400994271215422
2024-06-28,10.298861892033795
2024-07-01,10.327962622129872
2024-07-02,10.394597838221094
2024-07-03,10.415314973113219
2024-07-05,10.557881488122394
2024-07-08,10.511373950875226
2024-07-09,10.510000454993392
2024-07-10,10.577385900667766
2024-07-11,10.410118767140911
2024-07-12,10.394569066107117
2024-07-15,10.438329570893448
2024-07-16,10.357532319194497
2024-07-17,10.26406042832728
2024-07-18,10.26406042832728
2024-07-19,10.26406042832728
2024-07-22,10.299076531360024
2024-07-23,10.276217733175262
2024-07-24,9.749473736781987
2024-07-25,9.689159560676217
2024-07-26,9.689159560676217
2024-07-29,9.635588358812488
2024-07-30,9.578768309411188
2024-07-31,9.618598596178291
2024-08-01,9.569593659594267
2024-08-02,9.397832112156333
2024-08-05,9.271657488424378
2024-08-06,9.279163416739433
2024-08-07,9.183581407787416
2024-08-08,9.232124186455076
2024-08-09,9.173201301950131
2024-08-12,9.089069158900191
2024-08-13,9.195857669838325
2024-08-14,9.246984303781709
2024-08-15,9.26976802577193
2024-08-16,9.317864073004612
2024-08-19,9.370157536457338
2024-08-20,9.365671980638686
2024-08-21,9.393950548595539
2024-08-22,9.370458926450324
2024-08-23,9.384880978310706
2024-08-26,9.321708848709953
2024-08-27,9.32217132570782
2024-08-28,9.33341183260758
2024-08-29,9.409099439923107
2024-08-30,9.431747949226295
2024-09-03,9.379586894022347
2024-09-04,9.2809205480932
2024-09-05,9.26992967478929
2024-09-06,9.268403491396564
2024-09-09,9.312333625000965
2024-09-10,9.421811907908502
2024-09-11,9.44909459368309
2024-09-12,9.504515976601647
2024-09-13,9.47581122113231
2024-09-16,9.486269350636835
2024-09-17,9.456287147496138
2024-09-18,9.427433871759023
2024-09-19,9.458425144465405
2024-09-20,9.415392063428046
2024-09-23,9.425360592644966
2024-09-24,9.422797708634116
2024-09-25,9.36052713411983
2024-09-26,9.316391505370365
2024-09-27,9.333955971861418
2024-09-30,9.452141248520745
2024-10-01,9.458876975981028
2024-10-02,9.509476886316753
2024-10-03,9.634073100796058
2024-10-04,9.80818027100562
2024-10-07,9.813847904727165
2024-10-08,9.967985408758267
2024-10-09,9.992623682250525
2024-10-10,9.999950244255574
2024-10-11,10.087516651484606
2024-10-14,10.028471050856444
2024-10-15,9.99774638409323
2024-10-16,10.064412325299324
2024-10-17,10.015600338972277
2024-10-18,10.077009421312916
2024-10-21,10.561871586467696
2024-10-22,10.623150172190524
2024-10-23,10.610937409899059
2024-10-24,10.6440831488671
2024-10-25,10.746977165347177
2024-10-28,10.906045082279334
2024-10-29,11.106372067865557
2024-10-30,11.09128180093853
2024-10-31,11.025021539815212
2024-11-01,10.832128743769433
2024-11-04,10.68076744858995
2024-11-05,10.914307063999894
2024-11-06,11.0827635892093
2024-11-07,14.123929784495967
2024-11-08,15.671934913047307
2024-11-11,15.555277235356812
2024-11-12,15.567710000665736
2024-11-13,15.307774473013083
2024-11-14,15.32714343419466
2024-11-15,15.568342597307375
2024-11-18,15.542910679044995
2024-11-19,16.521022259645058
2024-11-20,16.60298668728523
2024-11-21,16.290181782238488
2024-11-22,17.067996116140616
2024-11-25,16.589378480562473
2024-11-26,17.044189477688946
2024-11-27,17.023513442201384
2024-11-29,17.401043124625147
2024-12-02,17.488974430599566
2024-12-03,18.78476025528534
2024-12-04,18.961760595011462
2024-12-05,19.311418611791098
2024-12-06,20.470604593172087
2024-12-09,18.018328495711394
2024-12-10,17.899094291992242
2024-12-11,18.022125995850743
2024-12-12,18.074527905387274
2024-12-13,18.29249131855775
2024-12-16,18.721012583735966
2024-12-17,18.965449272668177
2024-12-18,17.926358143903098
2024-12-19,18.049642104318337
2024-12-20,18.185271741537793
2024-12-23,18.12302362591251
2024-12-24,18.173125414997386
2024-12-26,18.283126829521855
2024-12-27,17.748222026194817
2024-12-30,17.609420952899892
2024-12-31,17.189454382964776
2025-01-02,17.62577049258915
2025-01-03,18.214831306807824
2025-01-06,18.025330870686325
2025-01-07,16.922715856946407
2025-01-08,16.866984059287603
2025-01-10,16.586453656524395
2025-01-13,16.628243555953205
2025-01-14,16.771643257469727
2025-01-15,17.16566037470774
2025-01-16,17.144344597281556
2025-01-17,17.676939334163286
2025-01-21,17.537775551661724
2025-01-22,18.20053001918039
2025-01-23,18.252513674189323
2025-01-24,18.193174777410793
2025-01-27,17.2093673928066
2025-01-28,17.67334188502821
2025-01-29,17.819625816515533
2025-01-30,17.797905999268117
2025-01-31,17.904674669608912
2025-02-03,17.99327893752485
2025-02-04,19.47704950557105
2025-02-05,19.028540891770543
2025-02-06,19.893143246869023
2025-02-07,19.74119663303975
2025-02-10,20.28474340663834
2025-02-11,19.825454299794696
2025-02-12,20.218343015406234
2025-02-13,22.637237382792904
2025-02-14,23.71188205975691
2025-02-18,23.639968935253442
2025-02-19,22.90690826888725
2025-02-20,20.74077936993286
2025-02-21,20.74077936993286
2025-02-24,20.723028226978727
2025-02-25,20.30265786349772
2025-02-26,20.118555988834874
2025-02-27,20.118555988834874
2025-02-28,20.118555988834874
2025-03-03,20.139404967173704
2025-03-04,19.939479957694818
2025-03-05,19.908833206386742
2025-03-06,19.93509945065992
2025-03-07,19.995075267515308
2025-03-10,19.977126539527507
2025-03-11,19.977126539527507
2025-03-12,19.977126539527507
2025-03-13,19.977126539527507
2025-03-14,19.977126539527507
2025-03-17,19.977126539527507
2025-03-18,19.977126539527507
2025-03-19,19.977126539527507
2025-03-20,19.977126539527507
2025-03-21,19.977126539527507
2025-03-24,19.977126539527507
2025-03-25,19.977126539527507
2025-03-26,19.977126539527507
2025-03-27,19.977126539527507
2025-03-28,19.977126539527507
2025-03-31,19.977126539527507
2025-04-01,19.977126539527507
2025-04-02,19.977126539527507
2025-04-03,19.977126539527507
2025-04-04,19.977126539527507
2025-04-07,19.977126539527507
2025-04-08,19.977126539527507
2025-04-09,19.977126539527507
2025-04-10,19.977126539527507
2025-04-11,19.977126539527507
2025-04-14,19.977126539527507
2025-04-15,19.977126539527507
2025-04-16,19.977126539527507
2025-04-17,19.977126539527507
2025-04-21,19.977126539527507
2025-04-22,19.977126539527507
2025-04-23,19.977126539527507
2025-04-24,19.977126539527507
2025-04-25,19.977126539527507
2025-04-28,19.977126539527507
2025-04-29,19.977126539527507
2025-04-30,19.977126539527507
2025-05-01,19.977126539527507
2025-05-02,19.977126539527507
2025-05-05,19.977126539527507
2025-05-06,19.977126539527507
2025-05-07,19.977126539527507
2025-05-08,19.977126539527507
2025-05-09,19.977126539527507
2025-05-12,19.977126539527507
2025-05-13,19.977126539527507
2025-05-14,19.977126539527507
2025-05-15,19.977126539527507
2025-05-16,19.977126539527507
2025-05-19,20.12133398081326
2025-05-20,20.065402192520466
2025-05-21,19.752449899925637
2025-05-22,19.90508008556857
2025-05-23,19.605856525626688
2025-05-27,19.79593199324604
2025-05-28,19.808262272868003
2025-05-29,19.67267854824304
2025-05-30,20.499400652689104
2025-06-02,20.637198797252523
2025-06-03,20.76192204705674
2025-06-04,20.39903595102979
2025-06-05,19.62030118801998
2025-06-06,19.682090784826187
2025-06-09,19.61387832633626
2025-06-10,19.674181759767748
2025-06-11,19.95666774280984
2025-06-12,19.793416742042613
2025-06-13,19.59136103755135
2025-06-16,20.058354448504844
2025-06-17,19.560258300310167
2025-06-18,19.528064089315162
2025-06-20,19.315021426788853
2025-06-23,19.744882537686557
2025-06-24,19.954978242589284
2025-06-25,20.025358586793924
2025-06-26,20.18491227249277
2025-06-27,19.14331095083351
2025-06-30,19.55226546276571
2025-07-01,18.91848167990633
2025-07-02,19.089093234923048
2025-07-03,19.418113331049092
2025-07-07,19.818049178405328
2025-07-08,19.782520027206722
2025-07-09,20.168092990510754
2025-07-10,19.55877714018672
2025-07-11,19.40473884454292
2025-07-14,19.963435456513235
2025-07-15,20.116412414364717
2025-07-16,20.5247319697256
2025-07-17,21.03193651507164
2025-07-18,20.878893968496428
2025-07-21,20.67354323599666
2025-07-22,20.26581137019461
2025-07-23,20.843652965356327
2025-07-24,20.89459521883666
2025-07-25,21.29023473320691
2025-07-28,21.30712234642788
2025-07-29,21.255154138269695
2025-07-30,21.466651323136233
2025-07-31,21.556681626789057
2025-08-01,20.902943855120558
2025-08-04,21.69832972455184
2025-08-05,22.818083582459977
2025-08-06,23.34683020010005
2025-08-07,23.313686997729427
2025-08-08,23.718001955856856
2025-08-11,23.46718044191121
2025-08-12,23.8520367586193
2025-08-13,23.305292189883115
2025-08-14,23.0642646429868
2025-08-15,22.87201212796355
2025-08-18,22.64815314251514
2025-08-19,21.718917778495616
2025-08-20,21.718917778495616
2025-08-21,21.718917778495616
2025-08-22,21.718917778495616
2025-08-25,21.957953834840787
2025-08-26,22.44262296915278
2025-08-27,22.210953266231236
2025-08-28,22.851510339743598
2025-08-29,22.704185503606546
2025-09-02,22.608804196470953
2025-09-03,22.838457091626143
2025-09-04,23.530083609111273
2025-09-05,23.418953440388144
2025-09-08,24.773562424526233
2025-09-09,24.833581651588457
2025-09-10,24.95865104177977
2025-09-11,25.280338942894986
2025-09-12,25.416690714477006
2025-09-15,26.039410691483077
2025-09-16,26.24986153159732
2025-09-17,26.371320462526306
2025-09-18,27.0649596609492
2025-09-19,27.849085676437316
2025-09-22,27.993611211371025
2025-09-23,27.62906194812176
2025-09-24,27.3150339201701
2025-09-25,26.85551904092121
2025-09-26,27.59419933915382
2025-09-29,28.629578656619763
2025-09-30,28.483685895899335
2025-10-01,28.89393182778466
2025-10-02,28.825802571708053
2025-10-03,28.653338022075406
2025-10-06,27.758741248266524
2025-10-07,27.944786275533946
2025-10-08,28.028186740984463
2025-10-09,28.14687070098097
2025-10-10,27.68817181190598
2025-10-13,27.722982503824817
2025-10-14,27.31803950151638
2025-10-15,29.096128047255092
2025-10-16,28.742486034505653
2025-10-17,28.70389253064007
2025-10-20,29.52418262477684
2025-10-21,29.37140683672714
2025-10-22,28.49569668553203
2025-10-23,29.19295694700454
2025-10-24,30.359630734255184
2025-10-27,31.188520628642884
2025-10-28,31.722399120248426
2025-10-29,32.059115949200375
2025-10-30,31.083484794457583
2025-10-31,31.109494191577276
2025-11-03,31.174429940740787
2025-11-04,29.778085872377495
2025-11-05,30.60626987127786
2025-11-06,29.06836733037519
2025-11-07,28.94706353039258
2025-11-10,29.364170376737672
2025-11-11,28.463490033707036
2025-11-12,28.689880558300995
2025-11-13,27.69405906563633
2025-11-14,28.27587095375671
2025-11-17,27.781940445398718
2025-11-18,26.954729811303068
2025-11-19,26.334926116795266
2025-11-20,26.17121502114876
2025-11-21,26.17121502114876
2025-11-24,26.348569459975153
2025-11-25,26.67376365257345
2025-11-26,26.577012716284646
2025-11-28,26.543749533967755
2025-12-01,26.173223956582234
2025-12-02,26.122665259025474
2025-12-03,26.04499698935918
2025-12-04,25.995229153350913
2025-12-05,26.033712991417175
2025-12-08,25.800429272459795
2025-12-09,25.871132820869143
2025-12-10,25.936997357812395
2025-12-11,25.773283253555324
2025-12-12,25.707209218904506
2025-12-15,25.63190835380493
2025-12-16,25.537805381599572
2025-12-17,25.17372440397248
2025-12-18,25.30153063393655
2025-12-19,25.372642697389857
2025-12-22,25.410387616059808
2025-12-23,25.425462688809198
2025-12-24,25.918357711304196
2025-12-26,25.858679538713908
2025-12-29,26.33348832527944
2025-12-30,26.178049558139918
2025-12-31,25.77256006464785
2026-01-02,27.445610135420516
2026-01-05,27.672495383228153
2026-01-06,29.399417597877196
2026-01-07,29.12753803616924
2026-01-08,28.292150757456852
2026-01-09,29.602244581978397
2026-01-12,29.786272711960507
2026-01-13,29.37172889342949
2026-01-14,29.078664728115307
2026-01-15,29.64986749196828
2026-01-16,31.047156744478443
2026-01-20,30.936268817895872
2026-01-21,32.21846056619878
2026-01-22,32.45110296783899
2026-01-23,32.634210707532645
2026-01-26,32.076292462893
2026-01-27,33.37458864733044
2026-01-28,34.62705530168767
2026-01-29,34.7627212018866
2026-01-30,33.33447925234631
2026-02-02,34.53911515875766
2026-02-03,33.45539057598696
2026-02-04,30.946764416721173
2026-02-05,30.946764416721173
2026-02-06,30.946764416721173
2026-02-09,31.012993076124125
2026-02-10,30.714482942494925
2026-02-11,31.755751235924777
2026-02-12,31.700133192598486
2026-02-13,31.796428397452033
2026-02-17,31.556682230333465
2026-02-18,32.1392790225968
2026-02-19,31.974902032335926
2026-02-20,32.44918216257932
2026-02-23,32.21333305816478
2026-02-24,32.22006799859906
2026-02-25,32.62010120659665
2026-02-26,31.99528017665429
2026-02-27,31.75545304352667
2026-03-02,31.663917086381673
2026-03-03,30.61484167463543
2026-03-04,31.04344919564858
2026-03-05,30.967848816663125
2026-03-06,30.42421356156065
2026-03-09,30.96048816701344
2026-03-10,30.931287484862565
2026-03-11,31.14498128593248
2026-03-12,30.29131580681439
2026-03-13,30.13184085604533
2026-03-16,29.852270190680414
2026-03-17,30.149523255941084
2026-03-18,29.56029550652935
2026-03-19,29.265379400946472
2026-03-20,28.904420322397137
2026-03-23,28.959315707093477
2026-03-24,28.959315707093477
2026-03-25,28.959315707093477
2026-03-26,28.959315707093477
2026-03-27,28.959315707093477
2026-03-30,28.959315707093477
2026-03-31,28.959315707093477
2026-04-01,28.959315707093477
2026-04-02,28.959315707093477
2026-04-06,28.959315707093477
2026-04-07,28.959315707093477
2026-04-08,28.959315707093477
2026-04-09,28.959315707093477
2026-04-10,28.959315707093477
2026-04-13,29.806088548973698
2026-04-14,29.76892260274723
2026-04-15,30.117846737111662
2026-04-16,30.809819300651917
2026-04-17,31.513916729497826
2026-04-20,31.76986098079667
2026-04-21,32.286852425257855
2026-04-22,32.725874327904265
2026-04-23,33.99550199058322
2026-04-24,37.52622368132114
2026-04-27,37.41716073622899
2026-04-28,36.75290152509626
2026-04-29,39.507232679827325
2026-04-30,40.400235925493014
2026-05-01,41.574889950070265
2026-05-04,40.53696532984651
2026-05-05,43.98459306079743
2026-05-06,45.495111335830615
2026-05-07,43.35320370553064
2026-05-08,48.043511716640374
2026-05-11,49.17516916836118
2026-05-12,46.41263051674119
2026-05-13,47.83654632719196
2026-05-14,47.33706508347525
2026-05-15,45.05562234541782
2026-05-18,43.71706965988362
2026-05-19,44.16639921865571
2026-05-20,47.11943385888968
