Date,Value
2018-01-02,1.0
2018-01-03,1.0
2018-01-04,1.0
2018-01-05,1.0
2018-01-08,1.0243276923826676
2018-01-09,1.02299762261486
2018-01-10,1.0174173973635758
2018-01-11,1.0211812661577055
2018-01-12,1.0218670095042373
2018-01-16,1.0110189039761224
2018-01-17,1.0082068621852474
2018-01-18,1.0097510140286383
2018-01-19,1.0154539088133494
2018-01-22,1.0384294248288282
2018-01-23,1.056559159616182
2018-01-24,1.0549172841385075
2018-01-25,1.0694383991263074
2018-01-26,1.1117660361505435
2018-01-29,1.1304885180207598
2018-01-30,1.1240345013358874
2018-01-31,1.1289740584250365
2018-02-01,1.1064544286136968
2018-02-02,1.1064544286136968
2018-02-05,1.089818978951778
2018-02-06,1.1007526134832644
2018-02-07,1.0942637827904562
2018-02-08,1.0803380499440207
2018-02-09,1.0703059110824968
2018-02-12,1.0893547937030164
2018-02-13,1.08560206267822
2018-02-14,1.1187853918799562
2018-02-15,1.134699920682676
2018-02-16,1.1319384493926639
2018-02-20,1.1433932830695879
2018-02-21,1.1245248653124018
2018-02-22,1.1242481843574899
2018-02-23,1.138608564001417
2018-02-26,1.1457092459886073
2018-02-27,1.1449856599723274
2018-02-28,1.1469953240528281
2018-03-01,1.1429909579381121
2018-03-02,1.1540279525252233
2018-03-05,1.1599048769215514
2018-03-06,1.1647352468832668
2018-03-07,1.1694568222984958
2018-03-08,1.1775727128625215
2018-03-09,1.181380438987791
2018-03-12,1.1723974436438975
2018-03-13,1.161051027672386
2018-03-14,1.157139988497391
2018-03-15,1.1316805929653095
2018-03-16,1.1193215600404032
2018-03-19,1.1060883830195833
2018-03-20,1.1096337238464495
2018-03-21,1.1087341670369455
2018-03-22,1.1001089383909768
2018-03-23,1.0950290505718743
2018-03-26,1.1159482552908626
2018-03-27,1.0866698459272703
2018-03-28,1.0696928819504663
2018-03-29,1.0696928819504663
2018-04-02,1.0556294877367307
2018-04-03,1.0662095018532365
2018-04-04,1.0746880063948192
2018-04-05,1.0873455434256283
2018-04-06,1.0753153822532524
2018-04-09,1.0704501243652256
2018-04-10,1.0777141900497385
2018-04-11,1.0770872690662607
2018-04-12,1.0906546414180578
2018-04-13,1.0815986906330581
2018-04-16,1.0868294588116911
2018-04-17,1.0970071314045335
2018-04-18,1.098216268204677
2018-04-19,1.0903563221655181
2018-04-20,1.086860697459057
2018-04-23,1.0849334025094064
2018-04-24,1.0852580677386494
2018-04-25,1.083826002430671
2018-04-26,1.0971617116593637
2018-04-27,1.093663604879241
2018-04-30,1.0883423547152287
2018-05-01,1.0907348393855498
2018-05-02,1.094553896864823
2018-05-03,1.0896946449260174
2018-05-04,1.0925775171880576
2018-05-07,1.1045601023853182
2018-05-08,1.1104752061217935
2018-05-09,1.1234184440535397
2018-05-10,1.1211588054713162
2018-05-11,1.1105023032024883
2018-05-14,1.1107362810193369
2018-05-15,1.109837424659501
2018-05-16,1.1096829012327485
2018-05-17,1.1049918588976166
2018-05-18,1.105795130437266
2018-05-21,1.1261355111335019
2018-05-22,1.1222737332475756
2018-05-23,1.148535313282737
2018-05-24,1.1594675004365467
2018-05-25,1.1630746763370632
2018-05-29,1.158283459226133
2018-05-30,1.1674633198355973
2018-05-31,1.1618182838581297
2018-06-01,1.1776102072466157
2018-06-04,1.172040523915422
2018-06-05,1.1788217845066493
2018-06-06,1.1816260013443138
2018-06-07,1.1713437000518467
2018-06-08,1.1699330661084462
2018-06-11,1.1904756676486323
2018-06-12,1.1989160813699686
2018-06-13,1.2434944541271662
2018-06-14,1.262922670185926
2018-06-15,1.2647067189307832
2018-06-18,1.2902256188788321
2018-06-19,1.2759364715192092
2018-06-20,1.2697095681976585
2018-06-21,1.23784245828997
2018-06-22,1.2433368032435586
2018-06-25,1.225534375139337
2018-06-26,1.2220979851062097
2018-06-27,1.2174004727951524
2018-06-28,1.2174004727951524
2018-06-29,1.2174004727951524
2018-07-02,1.206320730716564
2018-07-03,1.1866759164649494
2018-07-05,1.1928900644632705
2018-07-06,1.2006754905723793
2018-07-09,1.2048121233833533
2018-07-10,1.2000108862324965
2018-07-11,1.192297156632227
2018-07-12,1.198689699302667
2018-07-13,1.174254868224379
2018-07-16,1.1891304908854996
2018-07-17,1.1877218929729083
2018-07-18,1.187000564195905
2018-07-19,1.1819513315465806
2018-07-20,1.1743775857571412
2018-07-23,1.1638602820844701
2018-07-24,1.1309625709294082
2018-07-25,1.1444947754151094
2018-07-26,1.225493079887508
2018-07-27,1.2325761199806529
2018-07-30,1.2323444639637136
2018-07-31,1.2156782042497238
2018-08-01,1.220683900244023
2018-08-02,1.2077119357497468
2018-08-03,1.2077119357497468
2018-08-06,1.2189202219650532
2018-08-07,1.2251755832099303
2018-08-08,1.1928929924283271
2018-08-09,1.177548863390639
2018-08-10,1.1762701554847572
2018-08-13,1.1904897138452437
2018-08-14,1.210690961114315
2018-08-15,1.1956626449649153
2018-08-16,1.1873006993284831
2018-08-17,1.2074092291172005
2018-08-20,1.2163439704171908
2018-08-21,1.229681211275464
2018-08-22,1.2586394591596126
2018-08-23,1.3190699059710922
2018-08-24,1.3507084675314585
2018-08-27,1.3735010840171653
2018-08-28,1.3856413383861756
2018-08-29,1.4159107240478566
2018-08-30,1.4040271854813122
2018-08-31,1.4165890202387286
2018-09-04,1.4265318873736108
2018-09-05,1.4176419761521823
2018-09-06,1.4254976679853086
2018-09-07,1.4209798135464862
2018-09-10,1.4422772127691714
2018-09-11,1.4426441971202357
2018-09-12,1.4554041293755404
2018-09-13,1.4452825887697611
2018-09-14,1.4452825887697611
2018-09-17,1.433701998225974
2018-09-18,1.4495231228825707
2018-09-19,1.443883146343889
2018-09-20,1.4428970077360392
2018-09-21,1.4346960054238216
2018-09-24,1.4382793416753863
2018-09-25,1.4419357272860314
2018-09-26,1.434312517339884
2018-09-27,1.421013368283294
2018-09-28,1.4277287977655035
2018-10-01,1.4186937442214431
2018-10-02,1.4023491226903175
2018-10-03,1.3989213624778463
2018-10-04,1.3976660757076886
2018-10-05,1.3911362312679543
2018-10-08,1.390674783366244
2018-10-09,1.3953088651198295
2018-10-10,1.3693354311998194
2018-10-11,1.3693354311998194
2018-10-12,1.3693354311998194
2018-10-15,1.3716431699630076
2018-10-16,1.378080483109713
2018-10-17,1.3859147009195307
2018-10-18,1.383121056225559
2018-10-19,1.3832424999505428
2018-10-22,1.383988746485957
2018-10-23,1.3857895814025705
2018-10-24,1.380381192284141
2018-10-25,1.3916089573757038
2018-10-26,1.3853503934155333
2018-10-29,1.3910823044804732
2018-10-30,1.3910823044804732
2018-10-31,1.3910823044804732
2018-11-01,1.3910823044804732
2018-11-02,1.3910823044804732
2018-11-05,1.3910823044804732
2018-11-06,1.3910823044804732
2018-11-07,1.3910823044804732
2018-11-08,1.3910823044804732
2018-11-09,1.3910823044804732
2018-11-12,1.3910823044804732
2018-11-13,1.3910823044804732
2018-11-14,1.3910823044804732
2018-11-15,1.3910823044804732
2018-11-16,1.3910823044804732
2018-11-19,1.3910823044804732
2018-11-20,1.3910823044804732
2018-11-21,1.3910823044804732
2018-11-23,1.3910823044804732
2018-11-26,1.3910823044804732
2018-11-27,1.3910823044804732
2018-11-28,1.3910823044804732
2018-11-29,1.3910823044804732
2018-11-30,1.3910823044804732
2018-12-03,1.3910823044804732
2018-12-04,1.3910823044804732
2018-12-06,1.3910823044804732
2018-12-07,1.3910823044804732
2018-12-10,1.3910823044804732
2018-12-11,1.3910823044804732
2018-12-12,1.3910823044804732
2018-12-13,1.3910823044804732
2018-12-14,1.3910823044804732
2018-12-17,1.3910823044804732
2018-12-18,1.3910823044804732
2018-12-19,1.3910823044804732
2018-12-20,1.3910823044804732
2018-12-21,1.3910823044804732
2018-12-24,1.3910823044804732
2018-12-26,1.3910823044804732
2018-12-27,1.3910823044804732
2018-12-28,1.3910823044804732
2018-12-31,1.3910823044804732
2019-01-02,1.3910823044804732
2019-01-03,1.3910823044804732
2019-01-04,1.3910823044804732
2019-01-07,1.3910823044804732
2019-01-08,1.3910823044804732
2019-01-09,1.3910823044804732
2019-01-10,1.3910823044804732
2019-01-11,1.3910823044804732
2019-01-14,1.3910823044804732
2019-01-15,1.3910823044804732
2019-01-16,1.3910823044804732
2019-01-17,1.3910823044804732
2019-01-18,1.3910823044804732
2019-01-22,1.3910823044804732
2019-01-23,1.3910823044804732
2019-01-24,1.3910823044804732
2019-01-25,1.3910823044804732
2019-01-28,1.3910823044804732
2019-01-29,1.3910823044804732
2019-01-30,1.3910823044804732
2019-01-31,1.3910823044804732
2019-02-01,1.3910823044804732
2019-02-04,1.3910823044804732
2019-02-05,1.3910823044804732
2019-02-06,1.3910823044804732
2019-02-07,1.3910823044804732
2019-02-08,1.3910823044804732
2019-02-11,1.3910823044804732
2019-02-12,1.3910823044804732
2019-02-13,1.3910823044804732
2019-02-14,1.3910823044804732
2019-02-15,1.3910823044804732
2019-02-19,1.3860280078288434
2019-02-20,1.3965878711157549
2019-02-21,1.401706924048645
2019-02-22,1.424720680684485
2019-02-25,1.4380275841208219
2019-02-26,1.3819336241945983
2019-02-27,1.3767055367982253
2019-02-28,1.3724389358139117
2019-03-01,1.374975746677241
2019-03-04,1.349583065632193
2019-03-05,1.3276418775050507
2019-03-06,1.326266738812138
2019-03-07,1.3366060105894082
2019-03-08,1.3520581185954335
2019-03-11,1.3838712591914974
2019-03-12,1.3873934448917455
2019-03-13,1.4004595771050103
2019-03-14,1.4247739056795594
2019-03-15,1.4276143654353148
2019-03-18,1.457048574077715
2019-03-19,1.46812198121759
2019-03-20,1.488298069652823
2019-03-21,1.5706727517768675
2019-03-22,1.5168108657288633
2019-03-25,1.4909876287452684
2019-03-26,1.4873734079666456
2019-03-27,1.4666920930852339
2019-03-28,1.4667422629366729
2019-03-29,1.4709589049085277
2019-04-01,1.4628004711998126
2019-04-02,1.4482169582077433
2019-04-03,1.4419225066499983
2019-04-04,1.352776035401094
2019-04-05,1.352776035401094
2019-04-08,1.3391713532447769
2019-04-09,1.32611609128996
2019-04-10,1.3763961228779122
2019-04-11,1.3761052989583593
2019-04-12,1.3730048460218054
2019-04-15,1.3706782940633158
2019-04-16,1.3514633965474514
2019-04-17,1.3244851283890764
2019-04-18,1.3289645317421965
2019-04-22,1.3585461897448918
2019-04-23,1.3930908209168167
2019-04-24,1.4055575098442352
2019-04-25,1.3720628867573939
2019-04-26,1.3903036399400914
2019-04-29,1.3908964515468405
2019-04-30,1.3801693664265415
2019-05-01,1.3628326754670876
2019-05-02,1.4041274732504374
2019-05-03,1.420353890386537
2019-05-06,1.392845794343589
2019-05-07,1.3495678991933189
2019-05-08,1.3542178376237142
2019-05-09,1.3453765226996068
2019-05-10,1.3630583283403288
2019-05-13,1.325123916728578
2019-05-14,1.3341385225205231
2019-05-15,1.3346616043884492
2019-05-16,1.3207775398354091
2019-05-17,1.3155056213496767
2019-05-20,1.2969532423433239
2019-05-21,1.294647589985616
2019-05-22,1.2938091883917062
2019-05-23,1.2835805226345598
2019-05-24,1.284880086682982
2019-05-28,1.28936731219151
2019-05-29,1.2618391750361595
2019-05-30,1.2720816479093218
2019-05-31,1.2481716304376183
2019-06-03,1.2465882574987153
2019-06-04,1.2465882574987153
2019-06-05,1.2465882574987153
2019-06-06,1.2465882574987153
2019-06-07,1.2465882574987153
2019-06-10,1.2420528884596567
2019-06-11,1.2082544706243499
2019-06-12,1.227073890925379
2019-06-13,1.2230386580525798
2019-06-14,1.214616910193599
2019-06-17,1.2135399410868797
2019-06-18,1.2152627923053971
2019-06-19,1.2529020485479294
2019-06-20,1.2519251666064743
2019-06-21,1.2379225848046471
2019-06-24,1.2095791903721043
2019-06-25,1.1782042521179634
2019-06-26,1.1538717270342072
2019-06-27,1.1552891022312948
2019-06-28,1.156364379125562
2019-07-01,1.1566420073557713
2019-07-02,1.1773113683512444
2019-07-03,1.1861830261747106
2019-07-05,1.191443749079091
2019-07-08,1.1965905338221825
2019-07-09,1.2087154195764709
2019-07-10,1.1962743645239362
2019-07-11,1.1899572586073677
2019-07-12,1.1886411213173007
2019-07-15,1.2143193916289048
2019-07-16,1.191466506498205
2019-07-17,1.2035825447344035
2019-07-18,1.230644144422061
2019-07-19,1.207096893783008
2019-07-22,1.2261260379926777
2019-07-23,1.215440231348452
2019-07-24,1.2388727205024628
2019-07-25,1.2383332544205636
2019-07-26,1.2462584022190861
2019-07-29,1.2146484920353164
2019-07-30,1.1857336421680227
2019-07-31,1.1801012468595715
2019-08-01,1.2273718706073178
2019-08-02,1.1993221433797423
2019-08-05,1.168469035984587
2019-08-06,1.1735286800543474
2019-08-07,1.174271923222812
2019-08-08,1.1775236532723996
2019-08-09,1.177616599856013
2019-08-12,1.1730956797525383
2019-08-13,1.1804248996394935
2019-08-14,1.1619673988210735
2019-08-15,1.1624705018407089
2019-08-16,1.171680857553322
2019-08-19,1.174589790986133
2019-08-20,1.1819263531885702
2019-08-21,1.1959674505802513
2019-08-22,1.1954604855046176
2019-08-23,1.1852788660632911
2019-08-26,1.201435636698731
2019-08-27,1.2090019803422067
2019-08-28,1.2022715197770948
2019-08-29,1.201747098683305
2019-08-30,1.183867966140035
2019-09-03,1.1844489825494067
2019-09-04,1.1783327605676561
2019-09-05,1.1831327666321498
2019-09-06,1.1736560493759278
2019-09-09,1.1520302922807442
2019-09-10,1.1458270374964221
2019-09-11,1.1587692092454656
2019-09-12,1.1582941576629073
2019-09-13,1.1590066653742777
2019-09-16,1.1639887118545529
2019-09-17,1.1774834616828098
2019-09-18,1.1934397193887079
2019-09-19,1.182745294602694
2019-09-20,1.1684409790055996
2019-09-23,1.181486957491872
2019-09-24,1.1644835909456264
2019-09-25,1.1912622849961727
2019-09-26,1.1860462649536694
2019-09-27,1.1491914640536334
2019-09-30,1.1545702054865412
2019-10-01,1.1493048909905412
2019-10-02,1.1341228329222135
2019-10-03,1.1426226467947649
2019-10-04,1.1635223975852313
2019-10-07,1.1618791540701892
2019-10-08,1.1317534632501356
2019-10-09,1.1496966984490666
2019-10-10,1.1512653144565892
2019-10-11,1.1649682572144222
2019-10-14,1.1593644632404967
2019-10-15,1.1799905563031554
2019-10-16,1.1598642572097213
2019-10-17,1.1685771066370343
2019-10-18,1.1587224628986381
2019-10-21,1.180901216969473
2019-10-22,1.1720101268698777
2019-10-23,1.1544223382887104
2019-10-24,1.2327754306344798
2019-10-25,1.2428707360148457
2019-10-28,1.2751224256541032
2019-10-29,1.2522289487371552
2019-10-30,1.2636491100627152
2019-10-31,1.219570143353104
2019-11-01,1.219570143353104
2019-11-04,1.2206042277687006
2019-11-05,1.21979341641143
2019-11-06,1.2326104236248192
2019-11-07,1.246917340730386
2019-11-08,1.246902405626403
2019-11-11,1.2592094520300972
2019-11-12,1.26586258325412
2019-11-13,1.2637985969312582
2019-11-14,1.2758023467486466
2019-11-15,1.2999722201493433
2019-11-18,1.2936150361240426
2019-11-19,1.2991391722868195
2019-11-20,1.279270993311064
2019-11-21,1.2620477037281073
2019-11-22,1.2252462180837413
2019-11-25,1.2155457584578848
2019-11-26,1.1899363458368941
2019-11-27,1.2006670757267877
2019-11-29,1.194232686573704
2019-12-02,1.1964902736803884
2019-12-03,1.2014932875664717
2019-12-04,1.208105534224718
2019-12-05,1.202287173985722
2019-12-06,1.2122636303401995
2019-12-09,1.2078833272013614
2019-12-10,1.2323577598724753
2019-12-11,1.2396908565014246
2019-12-12,1.2525751351205898
2019-12-13,1.2502799725743592
2019-12-16,1.3050046714447663
2019-12-17,1.2890304757531148
2019-12-18,1.3179881094600208
2019-12-19,1.3393459033563242
2019-12-20,1.3472166622482273
2019-12-23,1.369102578218736
2019-12-24,1.3836785875672462
2019-12-26,1.3910542908375638
2019-12-27,1.387493102756653
2019-12-30,1.3637391495998932
2019-12-31,1.3667037085431075
2020-01-02,1.3631562819521816
2020-01-03,1.3561779613033789
2020-01-06,1.3656936318391517
2020-01-07,1.3660339319484462
2020-01-08,1.3755821029444515
2020-01-09,1.3934102693960266
2020-01-10,1.378695560488864
2020-01-13,1.3827459984502988
2020-01-14,1.3896022600303823
2020-01-15,1.3996108179016848
2020-01-16,1.4081915950451955
2020-01-17,1.425169490412095
2020-01-21,1.402225685808965
2020-01-22,1.4075855411651412
2020-01-23,1.4115348799508998
2020-01-24,1.392352285038863
2020-01-27,1.3700081155098218
2020-01-28,1.3756014345734608
2020-01-29,1.3844764481346639
2020-01-30,1.422155852873525
2020-01-31,1.428303461570319
2020-02-03,1.481231896286332
2020-02-04,1.505990991863844
2020-02-05,1.4794755218999862
2020-02-06,1.4794755218999862
2020-02-07,1.4794755218999862
2020-02-10,1.5213227209555935
2020-02-11,1.5239615465604306
2020-02-12,1.6201939793324716
2020-02-13,1.637982787147816
2020-02-14,1.640613511187722
2020-02-18,1.6788974823417766
2020-02-19,1.7527866376554961
2020-02-20,1.735372382749059
2020-02-21,1.6813465536031076
2020-02-24,1.6211038331717775
2020-02-25,1.6005054521082167
2020-02-26,1.6044737930669302
2020-02-27,1.5768888009182251
2020-02-28,1.5768888009182251
2020-03-02,1.5937160284405119
2020-03-03,1.5758753873062656
2020-03-04,1.63067123588475
2020-03-05,1.609993312954887
2020-03-06,1.6052171012772387
2020-03-09,1.5436484077434354
2020-03-10,1.5436484077434354
2020-03-11,1.5436484077434354
2020-03-12,1.5436484077434354
2020-03-13,1.5436484077434354
2020-03-16,1.5436484077434354
2020-03-17,1.5436484077434354
2020-03-18,1.5436484077434354
2020-03-19,1.5436484077434354
2020-03-20,1.5436484077434354
2020-03-23,1.5436484077434354
2020-03-24,1.5436484077434354
2020-03-25,1.5436484077434354
2020-03-26,1.5436484077434354
2020-03-27,1.5436484077434354
2020-03-30,1.5436484077434354
2020-03-31,1.5436484077434354
2020-04-01,1.5436484077434354
2020-04-02,1.5436484077434354
2020-04-03,1.5436484077434354
2020-04-06,1.5436484077434354
2020-04-07,1.5436484077434354
2020-04-08,1.5436484077434354
2020-04-09,1.5436484077434354
2020-04-13,1.5317085191866315
2020-04-14,1.6118894871857052
2020-04-15,1.6662266248384534
2020-04-16,1.692861330984822
2020-04-17,1.6814505452497068
2020-04-20,1.7189445386671893
2020-04-21,1.6497082144068225
2020-04-22,1.6497082144068225
2020-04-23,1.6497082144068225
2020-04-24,1.6497082144068225
2020-04-27,1.5844640688507028
2020-04-28,1.5630779568388693
2020-04-29,1.5527201772595776
2020-04-30,1.5357506634739018
2020-05-01,1.5125337264858567
2020-05-04,1.5881973387738024
2020-05-05,1.6682183158869126
2020-05-06,1.697669733030176
2020-05-07,1.6932343609447846
2020-05-08,1.681127612752542
2020-05-11,1.747808062545758
2020-05-12,1.7142883933367796
2020-05-13,1.7571038395762022
2020-05-14,1.7481188883807839
2020-05-15,1.7722470338683416
2020-05-18,1.7128691210312619
2020-05-19,1.7277311020138186
2020-05-20,1.7861817336732422
2020-05-21,1.7939439916481965
2020-05-22,1.835009106808705
2020-05-26,1.745894250594756
2020-05-27,1.7286169497246406
2020-05-28,1.7286169497246406
2020-05-29,1.7286169497246406
2020-06-01,1.785391623179717
2020-06-02,1.7723337545652433
2020-06-03,1.7687108013954744
2020-06-04,1.716177462161602
2020-06-05,1.648468190916599
2020-06-08,1.6530699436130323
2020-06-09,1.6447664863838805
2020-06-10,1.671352855541338
2020-06-11,1.6116288999314048
2020-06-12,1.6043327539808125
2020-06-15,1.6715313339313906
2020-06-16,1.6974310788005056
2020-06-17,1.682393971043763
2020-06-18,1.6966052561050504
2020-06-19,1.6800568242446354
2020-06-22,1.7316780549690916
2020-06-23,1.7169295156923385
2020-06-24,1.6948991983816954
2020-06-25,1.7181453812667333
2020-06-26,1.6424569924066272
2020-06-29,1.6222075107301852
2020-06-30,1.6571919606260699
2020-07-01,1.6410985281265746
2020-07-02,1.6562587330752914
2020-07-06,1.6305540518861208
2020-07-07,1.635420183592366
2020-07-08,1.6879655580774968
2020-07-09,1.7186376714896046
2020-07-10,1.7179848642571027
2020-07-13,1.6119488133303803
2020-07-14,1.6018968919520238
2020-07-15,1.6018968919520238
2020-07-16,1.6018968919520238
2020-07-17,1.6018968919520238
2020-07-20,1.7020118347444266
2020-07-21,1.649776423908183
2020-07-22,1.6513503085072045
2020-07-23,1.5566345347566175
2020-07-24,1.5531879904381214
2020-07-27,1.6373636054570722
2020-07-28,1.6070198575129409
2020-07-29,1.636137541431435
2020-07-30,1.6536525421742558
2020-07-31,1.6326842708348592
2020-08-03,1.6786871965515546
2020-08-04,1.6666270457484686
2020-08-05,1.6664539899206146
2020-08-06,1.6144322398997275
2020-08-07,1.5943204514403084
2020-08-10,1.5494025211777211
2020-08-11,1.4751457913455446
2020-08-12,1.627153583368631
2020-08-13,1.6560805746851726
2020-08-14,1.6672336248037607
2020-08-17,1.7155480800026082
2020-08-18,1.708436250825545
2020-08-19,1.7031022718519397
2020-08-20,1.7188232738859757
2020-08-21,1.728555329563605
2020-08-24,1.7025756076448446
2020-08-25,1.726213680936803
2020-08-26,1.7345708591964875
2020-08-27,1.7035989450227826
2020-08-28,1.7186096403917883
2020-08-31,1.7424680558062786
2020-09-01,1.777124548353429
2020-09-02,1.7401589755987812
2020-09-03,1.7401589755987812
2020-09-04,1.7401589755987812
2020-09-08,1.7414248295449193
2020-09-09,1.7579894834725396
2020-09-10,1.7532334903157232
2020-09-11,1.7447341317035154
2020-09-14,1.7536017123780843
2020-09-15,1.7728193620934576
2020-09-16,1.7698388603647368
2020-09-17,1.7500600532895638
2020-09-18,1.7566563769452412
2020-09-21,1.7837082711972148
2020-09-22,1.8042283977522406
2020-09-23,1.76893417162943
2020-09-24,1.7556580952227088
2020-09-25,1.7735715955410045
2020-09-28,1.7842403499938975
2020-09-29,1.7819520399624413
2020-09-30,1.7922726111973306
2020-10-01,1.8151326135992436
2020-10-02,1.7947310523270465
2020-10-05,1.8185446539206014
2020-10-06,1.8168872728340801
2020-10-07,1.83276377193397
2020-10-08,1.8277177653843175
2020-10-09,1.8401890183270737
2020-10-12,1.8503457645636847
2020-10-13,1.87333797609752
2020-10-14,1.847137320357569
2020-10-15,1.830438064235416
2020-10-16,1.831939016645569
2020-10-19,1.8077707732527453
2020-10-20,1.8095068304492743
2020-10-21,1.8049272297782164
2020-10-22,1.8049272297782164
2020-10-23,1.8049272297782164
2020-10-26,1.7927278378926343
2020-10-27,1.7920584389893754
2020-10-28,1.7736629371822414
2020-10-29,1.800343372202951
2020-10-30,1.7593434139148425
2020-11-02,1.762128553596269
2020-11-03,1.7736362344172838
2020-11-04,1.8143889465479597
2020-11-05,1.914841969118963
2020-11-06,1.9300688634589513
2020-11-09,1.8678551356197612
2020-11-10,1.8530757892904253
2020-11-11,1.879895680059057
2020-11-12,1.866521136599935
2020-11-13,1.867759535447517
2020-11-16,1.8937997412919643
2020-11-17,1.8864899248143043
2020-11-18,1.8847330158055131
2020-11-19,1.8893105967293637
2020-11-20,1.8680718430643521
2020-11-23,1.895120813548477
2020-11-24,1.9185381213386632
2020-11-25,1.909708643430537
2020-11-27,1.9081731170741496
2020-11-30,1.8341124090214675
2020-12-01,1.8601687886107492
2020-12-02,1.8183469330167883
2020-12-03,1.8564638353875376
2020-12-04,1.865248069884843
2020-12-07,1.9228690397651436
2020-12-08,1.9428748726379994
2020-12-09,1.846169947983451
2020-12-10,1.8445104321730352
2020-12-11,1.8349367864177077
2020-12-14,1.8421921503839993
2020-12-15,1.8494463702179489
2020-12-16,1.8522591961918422
2020-12-17,1.9396633133606216
2020-12-18,1.9402943439233316
2020-12-21,1.9577382525034885
2020-12-22,1.9788724890582585
2020-12-23,1.919266248759949
2020-12-24,1.933403974980543
2020-12-28,1.8928876062843096
2020-12-29,1.8892471997759113
2020-12-30,1.914446685172065
2020-12-31,1.939688139297733
2021-01-04,1.9176299499151717
2021-01-05,1.9586049819947275
2021-01-06,1.9566906322985076
2021-01-07,1.9822203543127144
2021-01-08,1.9606474476296176
2021-01-11,1.9105774391049009
2021-01-12,1.954365699050303
2021-01-13,1.9600553471991335
2021-01-14,1.9492827887921553
2021-01-15,1.9277149284780641
2021-01-19,1.9868128085596843
2021-01-20,1.9808237365288075
2021-01-21,1.975773671257948
2021-01-22,1.9625182022052161
2021-01-25,2.018153643716861
2021-01-26,1.9968587233650037
2021-01-27,1.9712170605185495
2021-01-28,1.9383271294877815
2021-01-29,1.8903604588517882
2021-02-01,1.9364913217073259
2021-02-02,1.9947082734330126
2021-02-03,1.9672700903049223
2021-02-04,1.9879197287830854
2021-02-05,1.9883627962091601
2021-02-08,1.9960023680110883
2021-02-09,1.9860313974044297
2021-02-10,1.9686479791434033
2021-02-11,1.9917252288583287
2021-02-12,2.0290925494017875
2021-02-16,2.0077253831056634
2021-02-17,1.9705553846093187
2021-02-18,1.973604774639635
2021-02-19,1.973383791642524
2021-02-22,1.9026799697570065
2021-02-23,1.8675324146742995
2021-02-24,1.8675324146742995
2021-02-25,1.8675324146742995
2021-02-26,1.8675324146742995
2021-03-01,1.872741386315719
2021-03-02,1.8363163505425817
2021-03-03,1.8186014938975097
2021-03-04,1.7701795979438526
2021-03-05,1.76400895076599
2021-03-08,1.7186460808130783
2021-03-09,1.7731953760293648
2021-03-10,1.7478056444958676
2021-03-11,1.7848564726928915
2021-03-12,1.7658508605210255
2021-03-15,1.7735348951589005
2021-03-16,1.8005338932227128
2021-03-17,1.822587877027821
2021-03-18,1.7760188971787723
2021-03-19,1.7817221582710852
2021-03-22,1.8030320058293363
2021-03-23,1.7622214166787784
2021-03-24,1.780674776191101
2021-03-25,1.7752794620050838
2021-03-26,1.8101530665284118
2021-03-29,1.8056023947207416
2021-03-30,1.7994212956568931
2021-03-31,1.8294036740276727
2021-04-01,1.8681179067212568
2021-04-05,1.9021399078700405
2021-04-06,1.8746083993309708
2021-04-07,1.8827671263569346
2021-04-08,1.8948607727686753
2021-04-09,1.910190353682712
2021-04-12,1.8626063218313433
2021-04-13,1.8599291044673931
2021-04-14,1.8428791958274466
2021-04-15,1.8428791958274466
2021-04-16,1.8428791958274466
2021-04-19,1.8463668689084771
2021-04-20,1.84857017693315
2021-04-21,1.8182683652528977
2021-04-22,1.7935183475380043
2021-04-23,1.8125663599737472
2021-04-26,1.8166567738272315
2021-04-27,1.8041284748012223
2021-04-28,1.840933030706665
2021-04-29,1.8553578392053094
2021-04-30,1.849221303667616
2021-05-03,1.8458058825251555
2021-05-04,1.810467079276359
2021-05-05,1.8006909537062268
2021-05-06,1.8147165565870407
2021-05-07,1.836576256714686
2021-05-10,1.790954533788463
2021-05-11,1.774742323380306
2021-05-12,1.7468297929439784
2021-05-13,1.7468297929439784
2021-05-14,1.7468297929439784
2021-05-17,1.7475968833192992
2021-05-18,1.735774650184478
2021-05-19,1.7380412858799352
2021-05-20,1.7480100746435183
2021-05-21,1.7453312983732765
2021-05-24,1.7609324987030006
2021-05-25,1.7653046398328067
2021-05-26,1.7629846651458894
2021-05-27,1.77153367983458
2021-05-28,1.7656746812288349
2021-06-01,1.7686306410622767
2021-06-02,1.7667440247185122
2021-06-03,1.7601502373620077
2021-06-04,1.7683863983802501
2021-06-07,1.7650556518373026
2021-06-08,1.7623508292919445
2021-06-09,1.755379238291535
2021-06-10,1.7584572739717925
2021-06-11,1.7567859939413197
2021-06-14,1.769994002187604
2021-06-15,1.7586652782748968
2021-06-16,1.751835578483195
2021-06-17,1.7640981332308443
2021-06-18,1.7545575206121242
2021-06-21,1.7478061910701497
2021-06-22,1.7593403901110949
2021-06-23,1.7758785218821198
2021-06-24,1.7689801726082033
2021-06-25,1.7586941501885773
2021-06-28,1.8014075477542963
2021-06-29,1.7835778016648232
2021-06-30,1.7270774750997413
2021-07-01,1.728182292266692
2021-07-02,1.7029060394420497
2021-07-06,1.6986282547864
2021-07-07,1.6820031476644401
2021-07-08,1.6559772072198125
2021-07-09,1.6686858990661733
2021-07-12,1.6915092701677956
2021-07-13,1.679225189494038
2021-07-14,1.6562163490619657
2021-07-15,1.627439283041202
2021-07-16,1.627439283041202
2021-07-19,1.6269178359337213
2021-07-20,1.639396824158
2021-07-21,1.6465903223739944
2021-07-22,1.6598938923522362
2021-07-23,1.6671795482935614
2021-07-26,1.6644748436455907
2021-07-27,1.6575538125858404
2021-07-28,1.659490909822919
2021-07-29,1.661983063037943
2021-07-30,1.6655734688367365
2021-08-02,1.6616230559368905
2021-08-03,1.6655083586358561
2021-08-04,1.6732742917665053
2021-08-05,1.6791848510515657
2021-08-06,1.6756782941870974
2021-08-09,1.6749868013832807
2021-08-10,1.6657781740786
2021-08-11,1.6703867719230119
2021-08-12,1.6798278924176033
2021-08-13,1.6849416509233919
2021-08-16,1.6864862769420148
2021-08-17,1.679409002274531
2021-08-18,1.671497931190037
2021-08-19,1.6873800528833178
2021-08-20,1.6954312458295022
2021-08-23,1.7077214931437028
2021-08-24,1.7092259443693738
2021-08-25,1.711781193301284
2021-08-26,1.7088044353035376
2021-08-27,1.7129422249142898
2021-08-30,1.7244297317050963
2021-08-31,1.7302770010279263
2021-09-01,1.7189280510179643
2021-09-02,1.7264250974143487
2021-09-03,1.7338706387988156
2021-09-07,1.7259374389181166
2021-09-08,1.7411373240382908
2021-09-09,1.7485017871254065
2021-09-10,1.7229566697047343
2021-09-13,1.7055864863566539
2021-09-14,1.7238478975627487
2021-09-15,1.7301035727271508
2021-09-16,1.7618872735832496
2021-09-17,1.7555052912647442
2021-09-20,1.7475491605723037
2021-09-21,1.7667743353639351
2021-09-22,1.8070292870759812
2021-09-23,1.8024757527578956
2021-09-24,1.7960559887893637
2021-09-27,1.740502768970461
2021-09-28,1.7042653775407133
2021-09-29,1.6998077632031086
2021-09-30,1.7112325723547204
2021-10-01,1.7138650129107864
2021-10-04,1.6757440519521325
2021-10-05,1.689938316636586
2021-10-06,1.694146220209186
2021-10-07,1.6905606329330978
2021-10-08,1.6852859337212034
2021-10-11,1.6967229033452753
2021-10-12,1.7121178659059475
2021-10-13,1.7419994016910616
2021-10-14,1.7332124311654076
2021-10-15,1.740691164345002
2021-10-18,1.7556558379226828
2021-10-19,1.7549076094795426
2021-10-20,1.757117352953875
2021-10-21,1.7599030226181782
2021-10-22,1.7609534670407039
2021-10-25,1.7531206575988512
2021-10-26,1.7550719939682566
2021-10-27,1.734980713775397
2021-10-28,1.7465672909544998
2021-10-29,1.7644953629847913
2021-11-01,1.8080444869669035
2021-11-02,1.7788833915989066
2021-11-03,1.8049662991133388
2021-11-04,1.8296691131750125
2021-11-05,1.872002946190577
2021-11-08,1.832291949857704
2021-11-09,1.8125624594919307
2021-11-10,1.8125624594919307
2021-11-11,1.8125624594919307
2021-11-12,1.8125624594919307
2021-11-15,1.7835509389677835
2021-11-16,1.830892640430699
2021-11-17,1.7930073426033775
2021-11-18,1.7910748048031173
2021-11-19,1.8035400665045005
2021-11-22,1.6629970995807513
2021-11-23,1.6259757652799811
2021-11-24,1.6259757652799811
2021-11-26,1.6259757652799811
2021-11-29,1.6741091652285065
2021-11-30,1.6382531219339875
2021-12-01,1.5593793505475384
2021-12-02,1.584842439856434
2021-12-03,1.5144136626094211
2021-12-06,1.4345881050777285
2021-12-07,1.4345881050777285
2021-12-08,1.4345881050777285
2021-12-09,1.4345881050777285
2021-12-10,1.4345881050777285
2021-12-13,1.3977703015791705
2021-12-14,1.379707810953525
2021-12-15,1.4326366726904927
2021-12-16,1.372601991388449
2021-12-17,1.392286804861488
2021-12-20,1.4048024928766967
2021-12-21,1.4279310324303323
2021-12-22,1.4540922905676419
2021-12-23,1.460131108518229
2021-12-27,1.4960272674938415
2021-12-28,1.4673994551940026
2021-12-29,1.4759207438606554
2021-12-30,1.4585252228433203
2021-12-31,1.4593016375632328
2022-01-03,1.472480498246422
2022-01-04,1.47263300224617
2022-01-05,1.4067587683278322
2022-01-06,1.4117587115472552
2022-01-07,1.3842982841544695
2022-01-10,1.3672712779411005
2022-01-11,1.3683963025744081
2022-01-12,1.3716986270713165
2022-01-13,1.373549390007645
2022-01-14,1.3798636927075307
2022-01-18,1.3506222897460995
2022-01-19,1.3402072597978085
2022-01-20,1.3325519068237828
2022-01-21,1.3325519068237828
2022-01-24,1.3325519068237828
2022-01-25,1.3325519068237828
2022-01-26,1.3325519068237828
2022-01-27,1.3325519068237828
2022-01-28,1.3325519068237828
2022-01-31,1.3325519068237828
2022-02-01,1.3325519068237828
2022-02-02,1.3325519068237828
2022-02-03,1.3325519068237828
2022-02-04,1.3325519068237828
2022-02-07,1.3325519068237828
2022-02-08,1.3325519068237828
2022-02-09,1.3325519068237828
2022-02-10,1.3325519068237828
2022-02-11,1.3325519068237828
2022-02-14,1.3325519068237828
2022-02-15,1.3325519068237828
2022-02-16,1.3325519068237828
2022-02-17,1.3325519068237828
2022-02-18,1.3325519068237828
2022-02-22,1.3325519068237828
2022-02-23,1.3325519068237828
2022-02-24,1.3325519068237828
2022-02-25,1.3325519068237828
2022-02-28,1.3325519068237828
2022-03-01,1.3325519068237828
2022-03-02,1.3325519068237828
2022-03-03,1.3325519068237828
2022-03-04,1.3325519068237828
2022-03-07,1.3325519068237828
2022-03-08,1.3325519068237828
2022-03-09,1.3325519068237828
2022-03-10,1.3325519068237828
2022-03-11,1.3325519068237828
2022-03-14,1.3325519068237828
2022-03-15,1.3325519068237828
2022-03-16,1.3325519068237828
2022-03-17,1.3325519068237828
2022-03-18,1.3325519068237828
2022-03-21,1.3325519068237828
2022-03-22,1.3325519068237828
2022-03-23,1.3325519068237828
2022-03-24,1.3325519068237828
2022-03-25,1.3325519068237828
2022-03-28,1.3325519068237828
2022-03-29,1.3325519068237828
2022-03-30,1.3325519068237828
2022-03-31,1.3325519068237828
2022-04-01,1.3325519068237828
2022-04-04,1.3325519068237828
2022-04-05,1.3325519068237828
2022-04-06,1.3325519068237828
2022-04-07,1.3325519068237828
2022-04-08,1.3325519068237828
2022-04-11,1.3325519068237828
2022-04-12,1.3325519068237828
2022-04-13,1.3325519068237828
2022-04-14,1.3325519068237828
2022-04-18,1.3325519068237828
2022-04-19,1.3325519068237828
2022-04-20,1.3325519068237828
2022-04-21,1.3325519068237828
2022-04-22,1.3325519068237828
2022-04-25,1.3325519068237828
2022-04-26,1.3325519068237828
2022-04-27,1.3325519068237828
2022-04-28,1.3325519068237828
2022-04-29,1.3325519068237828
2022-05-02,1.3325519068237828
2022-05-03,1.3325519068237828
2022-05-04,1.3325519068237828
2022-05-05,1.3325519068237828
2022-05-06,1.3325519068237828
2022-05-09,1.3325519068237828
2022-05-10,1.3325519068237828
2022-05-11,1.3325519068237828
2022-05-12,1.3325519068237828
2022-05-13,1.3325519068237828
2022-05-16,1.3325519068237828
2022-05-17,1.3325519068237828
2022-05-18,1.3325519068237828
2022-05-19,1.3325519068237828
2022-05-20,1.3325519068237828
2022-05-23,1.3325519068237828
2022-05-24,1.3325519068237828
2022-05-25,1.3325519068237828
2022-05-26,1.3325519068237828
2022-05-27,1.3325519068237828
2022-05-31,1.3325519068237828
2022-06-01,1.3325519068237828
2022-06-02,1.3325519068237828
2022-06-03,1.3325519068237828
2022-06-06,1.3325519068237828
2022-06-07,1.3325519068237828
2022-06-08,1.3325519068237828
2022-06-09,1.3325519068237828
2022-06-10,1.3325519068237828
2022-06-13,1.3325519068237828
2022-06-14,1.3325519068237828
2022-06-15,1.3325519068237828
2022-06-16,1.3325519068237828
2022-06-17,1.3325519068237828
2022-06-21,1.3325519068237828
2022-06-22,1.3325519068237828
2022-06-23,1.3325519068237828
2022-06-24,1.3325519068237828
2022-06-27,1.3325519068237828
2022-06-28,1.3325519068237828
2022-06-29,1.3325519068237828
2022-06-30,1.3325519068237828
2022-07-01,1.3325519068237828
2022-07-05,1.3325519068237828
2022-07-06,1.3325519068237828
2022-07-07,1.3325519068237828
2022-07-08,1.3325519068237828
2022-07-11,1.3325519068237828
2022-07-12,1.3325519068237828
2022-07-13,1.3325519068237828
2022-07-14,1.3325519068237828
2022-07-15,1.3325519068237828
2022-07-18,1.3325519068237828
2022-07-19,1.3325519068237828
2022-07-20,1.3325519068237828
2022-07-21,1.3325519068237828
2022-07-22,1.3325519068237828
2022-07-25,1.3325519068237828
2022-07-26,1.3325519068237828
2022-07-27,1.3325519068237828
2022-07-28,1.3325519068237828
2022-07-29,1.3325519068237828
2022-08-01,1.3325519068237828
2022-08-02,1.3325519068237828
2022-08-03,1.3325519068237828
2022-08-04,1.3325519068237828
2022-08-05,1.3325519068237828
2022-08-08,1.3325519068237828
2022-08-09,1.3325519068237828
2022-08-10,1.3325519068237828
2022-08-11,1.3325519068237828
2022-08-12,1.3325519068237828
2022-08-15,1.3325519068237828
2022-08-16,1.3325519068237828
2022-08-17,1.3325519068237828
2022-08-18,1.3325519068237828
2022-08-19,1.3325519068237828
2022-08-22,1.3325519068237828
2022-08-23,1.3325519068237828
2022-08-24,1.3325519068237828
2022-08-25,1.3325519068237828
2022-08-26,1.3325519068237828
2022-08-29,1.3325519068237828
2022-08-30,1.3325519068237828
2022-08-31,1.3325519068237828
2022-09-01,1.3325519068237828
2022-09-02,1.3325519068237828
2022-09-06,1.3325519068237828
2022-09-07,1.3325519068237828
2022-09-08,1.3325519068237828
2022-09-09,1.3325519068237828
2022-09-12,1.3325519068237828
2022-09-13,1.3325519068237828
2022-09-14,1.3325519068237828
2022-09-15,1.3325519068237828
2022-09-16,1.3325519068237828
2022-09-19,1.3325519068237828
2022-09-20,1.3325519068237828
2022-09-21,1.3325519068237828
2022-09-22,1.3325519068237828
2022-09-23,1.3325519068237828
2022-09-26,1.3325519068237828
2022-09-27,1.3325519068237828
2022-09-28,1.3325519068237828
2022-09-29,1.3325519068237828
2022-09-30,1.3325519068237828
2022-10-03,1.3325519068237828
2022-10-04,1.3325519068237828
2022-10-05,1.3325519068237828
2022-10-06,1.3325519068237828
2022-10-07,1.3325519068237828
2022-10-10,1.3325519068237828
2022-10-11,1.3325519068237828
2022-10-12,1.3325519068237828
2022-10-13,1.3325519068237828
2022-10-14,1.3325519068237828
2022-10-17,1.3325519068237828
2022-10-18,1.3325519068237828
2022-10-19,1.3325519068237828
2022-10-20,1.3325519068237828
2022-10-21,1.3325519068237828
2022-10-24,1.3325519068237828
2022-10-25,1.3325519068237828
2022-10-26,1.3325519068237828
2022-10-27,1.3325519068237828
2022-10-28,1.3325519068237828
2022-10-31,1.3325519068237828
2022-11-01,1.3325519068237828
2022-11-02,1.3325519068237828
2022-11-03,1.3325519068237828
2022-11-04,1.3325519068237828
2022-11-07,1.3325519068237828
2022-11-08,1.3325519068237828
2022-11-09,1.3325519068237828
2022-11-10,1.3325519068237828
2022-11-11,1.3325519068237828
2022-11-14,1.3325519068237828
2022-11-15,1.3325519068237828
2022-11-16,1.3325519068237828
2022-11-17,1.3325519068237828
2022-11-18,1.3325519068237828
2022-11-21,1.3325519068237828
2022-11-22,1.3325519068237828
2022-11-23,1.3325519068237828
2022-11-25,1.3325519068237828
2022-11-28,1.3325519068237828
2022-11-29,1.3325519068237828
2022-11-30,1.3325519068237828
2022-12-01,1.3325519068237828
2022-12-02,1.3325519068237828
2022-12-05,1.3325519068237828
2022-12-06,1.3325519068237828
2022-12-07,1.3325519068237828
2022-12-08,1.3325519068237828
2022-12-09,1.3325519068237828
2022-12-12,1.3325519068237828
2022-12-13,1.3325519068237828
2022-12-14,1.3325519068237828
2022-12-15,1.3325519068237828
2022-12-16,1.3325519068237828
2022-12-19,1.3325519068237828
2022-12-20,1.3325519068237828
2022-12-21,1.3325519068237828
2022-12-22,1.3325519068237828
2022-12-23,1.3325519068237828
2022-12-27,1.3325519068237828
2022-12-28,1.3325519068237828
2022-12-29,1.3325519068237828
2022-12-30,1.3325519068237828
2023-01-03,1.3325519068237828
2023-01-04,1.3325519068237828
2023-01-05,1.3325519068237828
2023-01-06,1.3325519068237828
2023-01-09,1.3325519068237828
2023-01-10,1.3325519068237828
2023-01-11,1.3325519068237828
2023-01-12,1.3325519068237828
2023-01-13,1.3325519068237828
2023-01-17,1.3325519068237828
2023-01-18,1.3325519068237828
2023-01-19,1.3325519068237828
2023-01-20,1.3325519068237828
2023-01-23,1.3325519068237828
2023-01-24,1.3325519068237828
2023-01-25,1.3325519068237828
2023-01-26,1.3325519068237828
2023-01-27,1.3325519068237828
2023-01-30,1.3325519068237828
2023-01-31,1.3325519068237828
2023-02-01,1.3325519068237828
2023-02-02,1.3325519068237828
2023-02-03,1.3325519068237828
2023-02-06,1.3399356987117441
2023-02-07,1.394508883648319
2023-02-08,1.36627924198842
2023-02-09,1.350824903343826
2023-02-10,1.3030294865732697
2023-02-13,1.3386380038491899
2023-02-14,1.3767001113426485
2023-02-15,1.3617842495644457
2023-02-16,1.3205228929441613
2023-02-17,1.3024322843213385
2023-02-21,1.2809372410216764
2023-02-22,1.277508151049578
2023-02-23,1.2769991917092653
2023-02-24,1.2769991917092653
2023-02-27,1.2703734551108914
2023-02-28,1.2765594331235772
2023-03-01,1.2667496980379558
2023-03-02,1.2771197425618568
2023-03-03,1.3047998749668748
2023-03-06,1.299617974793593
2023-03-07,1.2953592563705791
2023-03-08,1.3082599909129535
2023-03-09,1.2921178468423287
2023-03-10,1.28171507092437
2023-03-13,1.2770950225941617
2023-03-14,1.2918933219553168
2023-03-15,1.2941191418895428
2023-03-16,1.3118313182131043
2023-03-17,1.3143134276729103
2023-03-20,1.3144582900496031
2023-03-21,1.332877995382613
2023-03-22,1.3287348717445937
2023-03-23,1.3532711332238034
2023-03-24,1.3534347889786482
2023-03-27,1.3396054757275873
2023-03-28,1.3308296587318202
2023-03-29,1.354017520129287
2023-03-30,1.367634907752965
2023-03-31,1.3865093828175499
2023-04-03,1.3927826120519415
2023-04-04,1.3913328249213426
2023-04-05,1.3729011698922253
2023-04-06,1.3902849810632945
2023-04-10,1.393131671214893
2023-04-11,1.3846244157228829
2023-04-12,1.376028330068665
2023-04-13,1.3965974741935292
2023-04-14,1.4043471672952186
2023-04-17,1.3989407033214598
2023-04-18,1.404703358164626
2023-04-19,1.4010219862790336
2023-04-20,1.3811678962650697
2023-04-21,1.3711616702895975
2023-04-24,1.3686967232488259
2023-04-25,1.349369706842621
2023-04-26,1.3523344356355311
2023-04-27,1.3990647600899608
2023-04-28,1.4018852917377207
2023-05-01,1.404279066514142
2023-05-02,1.393453326009052
2023-05-03,1.531093700869168
2023-05-04,1.525468730674962
2023-05-05,1.5242828194419005
2023-05-08,1.5594142532435953
2023-05-09,1.553520700198447
2023-05-10,1.5441605225646136
2023-05-11,1.5451677047700407
2023-05-12,1.5225977465575085
2023-05-15,1.533779313447861
2023-05-16,1.5156772624894175
2023-05-17,1.5294656611087976
2023-05-18,1.537564706094689
2023-05-19,1.5275950484918779
2023-05-22,1.5548697258764426
2023-05-23,1.5062545293433547
2023-05-24,1.51811983932312
2023-05-25,1.5081297096063913
2023-05-26,1.528303934881024
2023-05-30,1.5357502737874817
2023-05-31,1.4951214048398418
2023-06-01,1.5190734604113776
2023-06-02,1.4883118202749863
2023-06-05,1.5389952011971753
2023-06-06,1.5824241093978122
2023-06-07,1.5864713878784604
2023-06-08,1.6358323140754751
2023-06-09,1.6605975238115187
2023-06-12,1.6619448096476563
2023-06-13,1.595920907075005
2023-06-14,1.5763504595624331
2023-06-15,1.598596124398255
2023-06-16,1.5872777909820042
2023-06-20,1.5771058476569693
2023-06-21,1.5060022681315641
2023-06-22,1.5094668126692241
2023-06-23,1.5128211651662764
2023-06-26,1.4759637470042581
2023-06-27,1.5042255363712318
2023-06-28,1.5173990832613842
2023-06-29,1.5250043351629534
2023-06-30,1.5546231838304125
2023-07-03,1.556494899136022
2023-07-05,1.5518344998563713
2023-07-06,1.5282215462045876
2023-07-07,1.510375256772683
2023-07-10,1.4873398493049415
2023-07-11,1.4893398105925866
2023-07-12,1.5026467101757475
2023-07-13,1.521091596978419
2023-07-14,1.5165759549256055
2023-07-17,1.5329087686817804
2023-07-18,1.5837414798921112
2023-07-19,1.5308694645219287
2023-07-20,1.5170293007504545
2023-07-21,1.5091478770539009
2023-07-24,1.4614420970394861
2023-07-25,1.4844243167653586
2023-07-26,1.5122253382655273
2023-07-27,1.500528342798039
2023-07-28,1.6086811509155408
2023-07-31,1.6394870982183782
2023-08-01,1.6402544791092466
2023-08-02,1.6333481974543713
2023-08-03,1.6187683020413997
2023-08-04,1.638463972484867
2023-08-07,1.6251312821345019
2023-08-08,1.599596127885258
2023-08-09,1.5416721223970704
2023-08-10,1.5416721223970704
2023-08-11,1.5416721223970704
2023-08-14,1.543995191430829
2023-08-15,1.5384205933055257
2023-08-16,1.537686495426459
2023-08-17,1.5267108785314525
2023-08-18,1.5214238315925623
2023-08-21,1.5207407557175219
2023-08-22,1.5209716776170612
2023-08-23,1.5260592876935986
2023-08-24,1.5156617439010636
2023-08-25,1.5205820700113817
2023-08-28,1.5414391599797164
2023-08-29,1.5523227287798989
2023-08-30,1.5869992968095605
2023-08-31,1.5911203954877826
2023-09-01,1.5922799012210962
2023-09-05,1.5753841623203735
2023-09-06,1.5666914039085926
2023-09-07,1.5719812483859468
2023-09-08,1.5639213195433308
2023-09-11,1.5675073622238973
2023-09-12,1.5537913220463968
2023-09-13,1.5342964499990133
2023-09-14,1.5350309688901789
2023-09-15,1.531023255023451
2023-09-18,1.5227233360700136
2023-09-19,1.524445428390809
2023-09-20,1.5189262640108587
2023-09-21,1.5092006876443365
2023-09-22,1.5092006876443365
2023-09-25,1.5036273950775105
2023-09-26,1.5080068538632752
2023-09-27,1.5138881930934756
2023-09-28,1.5216333088627256
2023-09-29,1.5236921134303028
2023-10-02,1.525270684366824
2023-10-03,1.499991663361086
2023-10-04,1.5062390716575047
2023-10-05,1.5057314445720817
2023-10-06,1.5091020107117128
2023-10-09,1.5376611067626784
2023-10-10,1.545959371414523
2023-10-11,1.5821204874134138
2023-10-12,1.5813201567494146
2023-10-13,1.5721022191688963
2023-10-16,1.5843869516003144
2023-10-17,1.578644431989912
2023-10-18,1.5802477632907947
2023-10-19,1.562019143185139
2023-10-20,1.525094300215537
2023-10-23,1.5236656543981537
2023-10-24,1.536092936015164
2023-10-25,1.5143713097780835
2023-10-26,1.5028042884846453
2023-10-27,1.503829919797414
2023-10-30,1.5113540960841723
2023-10-31,1.516949531110885
2023-11-01,1.5237847664533748
2023-11-02,1.534953924355992
2023-11-03,1.5447454470814308
2023-11-06,1.5420923613399111
2023-11-07,1.55599266395997
2023-11-08,1.5560294391655924
2023-11-09,1.5484836846580188
2023-11-10,1.5658206161571635
2023-11-13,1.5793846025713305
2023-11-14,1.5945188842328126
2023-11-15,1.5915095593413007
2023-11-16,1.5753408766590165
2023-11-17,1.581457302019555
2023-11-20,1.609299867622236
2023-11-21,1.5529678286087265
2023-11-22,1.550116957295226
2023-11-24,1.5336079010205481
2023-11-27,1.5277274272552106
2023-11-28,1.5568266348160993
2023-11-29,1.589588370429968
2023-11-30,1.5976396798282078
2023-12-01,1.6060744684860693
2023-12-04,1.5552716866592817
2023-12-05,1.5545286026620322
2023-12-06,1.5291287670781433
2023-12-07,1.5337899209629575
2023-12-08,1.5258862655798104
2023-12-11,1.5455055223183578
2023-12-12,1.5499617926990066
2023-12-13,1.578210573549055
2023-12-14,1.6033101983659068
2023-12-15,1.6395687446068625
2023-12-18,1.6432212510110884
2023-12-19,1.6328257968303048
2023-12-20,1.6070695853088015
2023-12-21,1.6301478279285426
2023-12-22,1.6249430369114146
2023-12-26,1.6391592809422764
2023-12-27,1.6377136991170733
2023-12-28,1.6318395594245452
2023-12-29,1.6164775808451808
2024-01-02,1.563292503079618
2024-01-03,1.550002583070517
2024-01-04,1.550002583070517
2024-01-05,1.550002583070517
2024-01-08,1.5821378163835633
2024-01-09,1.5991441243532023
2024-01-10,1.5951686194121546
2024-01-11,1.5922974869283455
2024-01-12,1.5842360229501689
2024-01-16,1.6706281705732957
2024-01-17,1.650729331408231
2024-01-18,1.6632249203404705
2024-01-19,1.6838350970435865
2024-01-22,1.6686508825676234
2024-01-23,1.7044347914431075
2024-01-24,1.7368043974820675
2024-01-25,1.7279931153215684
2024-01-26,1.7165739753206677
2024-01-29,1.7856639272164267
2024-01-30,1.8145793959832721
2024-01-31,1.7900303219265274
2024-02-01,1.8090870340834053
2024-02-02,1.8207374679366302
2024-02-05,1.7929829251452407
2024-02-06,1.7595795766729085
2024-02-07,1.8186354845279804
2024-02-08,1.8251262089268936
2024-02-09,1.85854712408248
2024-02-12,1.8325164269034668
2024-02-13,1.8306314543323543
2024-02-14,1.8671072166039446
2024-02-15,1.857224111622656
2024-02-16,1.84250136346825
2024-02-20,1.800829392013246
2024-02-21,1.793697216732939
2024-02-22,1.883205468475858
2024-02-23,1.8560015107484564
2024-02-26,1.8462801291070563
2024-02-27,1.851836768844846
2024-02-28,1.8322379828654918
2024-02-29,1.9306735118473353
2024-03-01,2.019281803282466
2024-03-04,2.0677941414348506
2024-03-05,2.0751873079099186
2024-03-06,2.135262529139157
2024-03-07,2.185585874291802
2024-03-08,2.1681093672038783
2024-03-11,2.1202935709252353
2024-03-12,2.1389365813946144
2024-03-13,2.1731153680724375
2024-03-14,2.1748415434791415
2024-03-15,2.1738058645748675
2024-03-18,2.237278075879497
2024-03-19,2.2397842112278674
2024-03-20,2.3011801913671195
2024-03-21,2.3379234492060106
2024-03-22,2.3604142388822495
2024-03-25,2.392614317687891
2024-03-26,2.3372729928367857
2024-03-27,2.241426944415716
2024-03-28,2.242698257909418
2024-04-01,2.272916088521715
2024-04-02,2.231756374202784
2024-04-03,2.232185727796259
2024-04-04,2.131589439068442
2024-04-05,2.145745832700638
2024-04-08,2.113586144119786
2024-04-09,2.054510021281774
2024-04-10,2.054510021281774
2024-04-11,2.054510021281774
2024-04-12,2.054510021281774
2024-04-15,2.025015101213728
2024-04-16,2.0328260265473688
2024-04-17,2.0004142497274424
2024-04-18,1.9680395257921872
2024-04-19,1.9477588516983424
2024-04-22,1.9610793377580409
2024-04-23,1.9902811598403818
2024-04-24,1.9837105155578814
2024-04-25,1.9644099185680428
2024-04-26,1.9962611861179946
2024-04-29,1.9734160629041577
2024-04-30,1.9368805637309081
2024-05-01,1.9374962505038684
2024-05-02,1.9725867375607247
2024-05-03,1.9941961626654907
2024-05-06,2.0115513625885564
2024-05-07,2.0317309122890803
2024-05-08,1.9993862821500332
2024-05-09,2.076655611343571
2024-05-10,2.0809747495396325
2024-05-13,2.0834415064044727
2024-05-14,2.070253551344627
2024-05-15,2.087296709382559
2024-05-16,2.0913812865409103
2024-05-17,2.0973228629183023
2024-05-20,2.1167505628672503
2024-05-21,2.118280648137448
2024-05-22,2.082000468793363
2024-05-23,2.0573718113753583
2024-05-24,2.0658387388161508
2024-05-28,2.0544266419222117
2024-05-29,2.0286029378487207
2024-05-30,1.9938762350517802
2024-05-31,1.9895037195962224
2024-06-03,2.0052795161819246
2024-06-04,2.0212588002263527
2024-06-05,2.082308891734273
2024-06-06,2.0776933969786677
2024-06-07,2.063401978442031
2024-06-10,2.0755587809399554
2024-06-11,2.0775684101506315
2024-06-12,2.1212804380859467
2024-06-13,2.143653195189828
2024-06-14,2.1727338639509752
2024-06-17,2.167657491794514
2024-06-18,2.1944863604196305
2024-06-20,2.1752710076993464
2024-06-21,2.1948735680568645
2024-06-24,2.146712957339399
2024-06-25,2.246189703360293
2024-06-26,2.248071342405165
2024-06-27,2.2355867057398573
2024-06-28,2.2123832155687237
2024-07-01,2.224105390570341
2024-07-02,2.2228146492831407
2024-07-03,2.2762562392491876
2024-07-05,2.282546633425256
2024-07-08,2.2944387139439053
2024-07-09,2.3225024640465
2024-07-10,2.3669317475515657
2024-07-11,2.2669372346454777
2024-07-12,2.280402154942615
2024-07-15,2.281862678362339
2024-07-16,2.24804232632058
2024-07-17,2.223732397431039
2024-07-18,2.223732397431039
2024-07-19,2.223732397431039
2024-07-22,2.231318717025455
2024-07-23,2.226366305604581
2024-07-24,2.112246002230362
2024-07-25,2.0991787966768363
2024-07-26,2.0991787966768363
2024-07-29,2.087572472066264
2024-07-30,2.0752622771332154
2024-07-31,2.083891651725277
2024-08-01,2.073274568060823
2024-08-02,2.036062032111941
2024-08-05,2.008726008470453
2024-08-06,2.0103520811029645
2024-08-07,1.9896441997277932
2024-08-08,2.0001611048394077
2024-08-09,1.987395272724904
2024-08-12,1.969167743995965
2024-08-13,1.9923038270388091
2024-08-14,2.0033806361475817
2024-08-15,2.0083166757886155
2024-08-16,2.0187367949178263
2024-08-19,2.030066347364391
2024-08-20,2.0290944883594486
2024-08-21,2.035221158368695
2024-08-22,2.030131644597161
2024-08-23,2.0332561093376365
2024-08-26,2.0195696690920597
2024-08-27,2.0196700782069454
2024-08-28,2.0221052010154685
2024-08-29,2.038503201710351
2024-08-30,2.0434098939339265
2024-09-03,2.032109134613741
2024-09-04,2.0107328967198246
2024-09-05,2.008351698634269
2024-09-06,2.008020994377805
2024-09-09,2.0175386124642536
2024-09-10,2.0412573885126295
2024-09-11,2.0471681393127508
2024-09-12,2.059175416087837
2024-09-13,2.0529564644072145
2024-09-16,2.0552222423173383
2024-09-17,2.0487266348881525
2024-09-18,2.0424752404152207
2024-09-19,2.0491896244061474
2024-09-20,2.039866514090968
2024-09-23,2.0420261658920404
2024-09-24,2.041470964261217
2024-09-25,2.027979794238208
2024-09-26,2.018417708146947
2024-09-27,2.0222231434783065
2024-09-30,2.047828256918798
2024-10-01,2.0492876209390185
2024-10-02,2.0602501553467665
2024-10-03,2.0872442664543875
2024-10-04,2.124964934321472
2024-10-07,2.1261928933847445
2024-10-08,2.159587033770912
2024-10-09,2.164924972616341
2024-10-10,2.166512395534579
2024-10-11,2.1854837539119987
2024-10-14,2.172691494200178
2024-10-15,2.1660349240407104
2024-10-16,2.180478148074608
2024-10-17,2.1699029714223266
2024-10-18,2.183207391155321
2024-10-21,2.233086019062239
2024-10-22,2.2455705826400556
2024-10-23,2.2393617004942614
2024-10-24,2.249709855103782
2024-10-25,2.251178589807343
2024-10-28,2.2475761098039344
2024-10-29,2.2420361064180496
2024-10-30,2.2124342399920733
2024-10-31,2.160197816005304
2024-11-01,2.164804417974672
2024-11-04,2.1580760985611915
2024-11-05,2.1809178308729757
2024-11-06,2.2020048247495767
2024-11-07,2.4596724484844685
2024-11-08,2.4596724484844685
2024-11-11,2.475000930319787
2024-11-12,2.3906348030581195
2024-11-13,2.4142338765391926
2024-11-14,2.315457995831395
2024-11-15,2.484116188733874
2024-11-18,2.432824169014416
2024-11-19,2.4586070835765033
2024-11-20,2.4445081766067878
2024-11-21,2.436020480496177
2024-11-22,2.4819040021814276
2024-11-25,2.3450231530210504
2024-11-26,2.3801392609314815
2024-11-27,2.3568491600494994
2024-11-29,2.429704440008302
2024-12-02,2.4858005403895422
2024-12-03,2.5584740880941257
2024-12-04,2.6071554638279415
2024-12-05,2.667407484779207
2024-12-06,2.755902687352706
2024-12-09,2.599025193527716
2024-12-10,2.6388003701897897
2024-12-11,2.7232517272273746
2024-12-12,2.6995642109491738
2024-12-13,2.7639504007745725
2024-12-16,2.833488536152122
2024-12-17,2.8108817026118507
2024-12-18,2.71844283638207
2024-12-19,2.7395599450480956
2024-12-20,2.822427155631296
2024-12-23,2.8373975982477613
2024-12-24,2.8560913115840614
2024-12-26,2.870104671507503
2024-12-27,2.7730397626220014
2024-12-30,2.740285421034405
2024-12-31,2.669910194481333
2025-01-02,2.728996431050024
2025-01-03,2.8449899761195976
2025-01-06,2.7908568234721156
2025-01-07,2.569540649096794
2025-01-08,2.569540649096794
2025-01-10,2.569540649096794
2025-01-13,2.6030840505217565
2025-01-14,2.601647868600442
2025-01-15,2.615872477896166
2025-01-16,2.629052143417307
2025-01-17,2.6936816529237833
2025-01-21,2.6964413760115726
2025-01-22,2.7063953702719132
2025-01-23,2.709430909555967
2025-01-24,2.710636976110915
2025-01-27,2.6212853170160755
2025-01-28,2.6212853170160755
2025-01-29,2.6212853170160755
2025-01-30,2.6212853170160755
2025-01-31,2.6212853170160755
2025-02-03,2.6729667314571914
2025-02-04,2.864750275690715
2025-02-05,2.8223222106357424
2025-02-06,2.855551305687264
2025-02-07,2.8464493565553886
2025-02-10,2.8645844074093416
2025-02-11,2.8277951453966206
2025-02-12,2.8655847261161727
2025-02-13,3.09807658124931
2025-02-14,3.059038864627299
2025-02-18,3.245135430308787
2025-02-19,3.3592587490714614
2025-02-20,3.346914871733385
2025-02-21,3.292369995131686
2025-02-24,3.230083358846766
2025-02-25,3.1634026724426674
2025-02-26,3.134199758923397
2025-02-27,3.134199758923397
2025-02-28,3.134199758923397
2025-03-03,3.1374477486359593
2025-03-04,3.1063019681705986
2025-03-05,3.10152756263134
2025-03-06,3.1056194884992143
2025-03-07,3.1149629639793543
2025-03-10,3.1121667410425005
2025-03-11,3.1121667410425005
2025-03-12,3.1121667410425005
2025-03-13,3.1121667410425005
2025-03-14,3.1121667410425005
2025-03-17,3.1121667410425005
2025-03-18,3.1121667410425005
2025-03-19,3.1121667410425005
2025-03-20,3.1121667410425005
2025-03-21,3.1121667410425005
2025-03-24,3.1121667410425005
2025-03-25,3.1121667410425005
2025-03-26,3.1121667410425005
2025-03-27,3.1121667410425005
2025-03-28,3.1121667410425005
2025-03-31,3.1121667410425005
2025-04-01,3.1121667410425005
2025-04-02,3.1121667410425005
2025-04-03,3.1121667410425005
2025-04-04,3.1121667410425005
2025-04-07,3.1121667410425005
2025-04-08,3.1121667410425005
2025-04-09,3.1121667410425005
2025-04-10,3.1121667410425005
2025-04-11,3.1121667410425005
2025-04-14,3.1121667410425005
2025-04-15,3.1121667410425005
2025-04-16,3.1121667410425005
2025-04-17,3.1121667410425005
2025-04-21,3.1121667410425005
2025-04-22,3.1121667410425005
2025-04-23,3.1121667410425005
2025-04-24,3.1121667410425005
2025-04-25,3.1121667410425005
2025-04-28,3.1121667410425005
2025-04-29,3.1121667410425005
2025-04-30,3.1121667410425005
2025-05-01,3.1121667410425005
2025-05-02,3.1121667410425005
2025-05-05,3.1121667410425005
2025-05-06,3.1121667410425005
2025-05-07,3.1121667410425005
2025-05-08,3.1121667410425005
2025-05-09,3.1121667410425005
2025-05-12,3.1121667410425005
2025-05-13,3.1121667410425005
2025-05-14,3.1121667410425005
2025-05-15,3.1121667410425005
2025-05-16,3.1121667410425005
2025-05-19,3.134632314441776
2025-05-20,3.1259188965762257
2025-05-21,3.077165152406887
2025-05-22,3.1009428757194577
2025-05-23,3.054327882840232
2025-05-27,3.083939075793462
2025-05-28,3.0858599669722455
2025-05-29,3.0647378522592232
2025-05-30,3.1935300002416103
2025-06-02,3.2149970916993884
2025-06-03,3.234427290987929
2025-06-04,3.1778945340567843
2025-06-05,3.056578166323046
2025-06-06,3.0662041517089924
2025-06-09,3.055577571143612
2025-06-10,3.0649720323302505
2025-06-11,3.108979536587421
2025-06-12,3.083547233597079
2025-06-13,3.0520696814020027
2025-06-16,3.1248209531617217
2025-06-17,3.0472242946440087
2025-06-18,3.042208871003651
2025-06-20,3.0090196990060853
2025-06-23,3.075986259484961
2025-06-24,3.1087163352513834
2025-06-25,3.1196806431573982
2025-06-26,3.1445369543521133
2025-06-27,3.018602337286313
2025-06-30,2.966043242124811
2025-07-01,2.868558227857241
2025-07-02,2.8325355281906193
2025-07-03,2.8325355281906193
2025-07-07,2.7917021702177287
2025-07-08,2.746077881901117
2025-07-09,2.7248214595832074
2025-07-10,2.7147429495342474
2025-07-11,2.6879401809124746
2025-07-14,2.690486649676563
2025-07-15,2.808479727116218
2025-07-16,2.8866837747489917
2025-07-17,2.9346047813503358
2025-07-18,2.8841320738642424
2025-07-21,2.8726913264801572
2025-07-22,2.819544463135072
2025-07-23,2.8775311272765363
2025-07-24,2.914143684245907
2025-07-25,2.966827406953044
2025-07-28,3.0466926240810595
2025-07-29,3.094163620415958
2025-07-30,3.116398241271719
2025-07-31,3.1069479024064943
2025-08-01,3.024750946322465
2025-08-04,3.04536652443543
2025-08-05,2.998749111343071
2025-08-06,2.7027493973470516
2025-08-07,2.7027493973470516
2025-08-08,2.7027493973470516
2025-08-11,2.69137359058909
2025-08-12,2.7287284250383466
2025-08-13,2.8110717846624294
2025-08-14,2.731323647565657
2025-08-15,2.678885241003935
2025-08-18,2.682698379909253
2025-08-19,2.5996180119656254
2025-08-20,2.582048422920079
2025-08-21,2.5765803497927866
2025-08-22,2.625255187103023
2025-08-25,2.641893272107158
2025-08-26,2.7001032250631174
2025-08-27,2.652992437651741
2025-08-28,2.714743355925946
2025-08-29,2.6994317268142005
2025-09-02,2.726506890409433
2025-09-03,2.7315950031923473
2025-09-04,2.7886857024415317
2025-09-05,2.765575291104464
2025-09-08,2.9310158218770486
2025-09-09,2.980750578522767
2025-09-10,3.015405490948969
2025-09-11,3.021905323923158
2025-09-12,3.0493424004811116
2025-09-15,3.090688632156005
2025-09-16,3.108183173099964
2025-09-17,3.082549307009421
2025-09-18,3.1266445313069475
2025-09-19,3.2099385693458107
2025-09-22,3.193450329919375
2025-09-23,3.1978686354294217
2025-09-24,3.155868518823609
2025-09-25,3.126471254710807
2025-09-26,3.1387318253878913
2025-09-29,3.131312678645419
2025-09-30,3.062627103063697
2025-10-01,3.2158794767243783
2025-10-02,3.296797851973943
2025-10-03,3.2552040014885413
2025-10-06,3.2471140382540553
2025-10-07,3.2598001735237663
2025-10-08,3.304671574214319
2025-10-09,3.3401965644782066
2025-10-10,3.2073604979666275
2025-10-13,3.265056751020697
2025-10-14,3.137447264376689
2025-10-15,3.153397885035635
2025-10-16,3.1395899248226113
2025-10-17,3.156175412320663
2025-10-20,3.1695788164074292
2025-10-21,3.1291900432962994
2025-10-22,3.0977153189924715
2025-10-23,3.179441944440031
2025-10-24,3.286556583728597
2025-10-27,3.3209024665179188
2025-10-28,3.3198544569136317
2025-10-29,3.3716581785434148
2025-10-30,3.3796813179400758
2025-10-31,3.4265932429809185
2025-11-03,3.545780961305373
2025-11-04,3.3523666713013003
2025-11-05,3.4994422362667903
2025-11-06,3.505712007420695
2025-11-07,3.5026147289347485
2025-11-10,3.6684088541228945
2025-11-11,3.5647322862911515
2025-11-12,3.565010739680312
2025-11-13,3.44445062431127
2025-11-14,3.451350481936226
2025-11-17,3.372981993554421
2025-11-18,3.317993203311434
2025-11-19,3.275823381011201
2025-11-20,3.2378029709739673
2025-11-21,3.2378029709739673
2025-11-24,3.2597445861600978
2025-11-25,3.2999763721924764
2025-11-26,3.2880067151204893
2025-11-28,3.28389152098668
2025-12-01,3.2380515088087503
2025-12-02,3.2317965141877236
2025-12-03,3.222187822423799
2025-12-04,3.2160306701791876
2025-12-05,3.220791743943808
2025-12-08,3.1919307557527383
2025-12-09,3.2006779292757557
2025-12-10,3.2088264387440537
2025-12-11,3.1885723537607795
2025-12-12,3.180397926034601
2025-12-15,3.171081990045379
2025-12-16,3.1594399525528525
2025-12-17,3.1143972396834196
2025-12-18,3.130208941715721
2025-12-19,3.1390066783348503
2025-12-22,3.14367630379743
2025-12-23,3.1455412135519634
2025-12-24,3.206520594993458
2025-12-26,3.199137486275854
2025-12-29,3.257878820701985
2025-12-30,3.2386485142847916
2025-12-31,3.188482890873347
2026-01-02,3.395466338652112
2026-01-05,3.423535700616275
2026-01-06,3.4988458205597226
2026-01-07,3.4873270362566835
2026-01-08,3.455401365499432
2026-01-09,3.5144760978314276
2026-01-12,3.567613254577879
2026-01-13,3.5114777633474503
2026-01-14,3.4569958181481204
2026-01-15,3.5795743800050297
2026-01-16,3.6482081471889543
2026-01-20,3.6171897207256527
2026-01-21,3.6870277955802258
2026-01-22,3.604972439599591
2026-01-23,3.5530162763299726
2026-01-26,3.555782006708564
2026-01-27,3.7772600164624626
2026-01-28,3.898820990469331
2026-01-29,3.9707994543174374
2026-01-30,3.757538759555806
2026-02-02,3.893265897107931
2026-02-03,3.7507628994379045
2026-02-04,3.604373947252143
2026-02-05,3.604373947252143
2026-02-06,3.604373947252143
2026-02-09,3.600884591261185
2026-02-10,3.5853787565891153
2026-02-11,3.6961400716375126
2026-02-12,3.6902339780229676
2026-02-13,3.697635512007639
2026-02-17,3.6676014106679258
2026-02-18,3.7080589206327446
2026-02-19,3.6780752837542385
2026-02-20,3.710528139410931
2026-02-23,3.6940151668028127
2026-02-24,3.6604965140897416
2026-02-25,3.6887497132885603
2026-02-26,3.6517651384709167
2026-02-27,3.627109654599267
2026-03-02,3.64157352773808
2026-03-03,3.5274913478720147
2026-03-04,3.5433081156854063
2026-03-05,3.5157270058140804
2026-03-06,3.462511028532788
2026-03-09,3.523543230135803
2026-03-10,3.520219966453621
2026-03-11,3.5445399752990925
2026-03-12,3.4473862352313906
2026-03-13,3.429236751278574
2026-03-16,3.404996493163513
2026-03-17,3.4432314155662738
2026-03-18,3.4433083570370586
2026-03-19,3.4097446211657454
2026-03-20,3.368664683707471
2026-03-23,3.3749122034516383
2026-03-24,3.3749122034516383
2026-03-25,3.3749122034516383
2026-03-26,3.3749122034516383
2026-03-27,3.3749122034516383
2026-03-30,3.3749122034516383
2026-03-31,3.3749122034516383
2026-04-01,3.3749122034516383
2026-04-02,3.3749122034516383
2026-04-06,3.3749122034516383
2026-04-07,3.3749122034516383
2026-04-08,3.3749122034516383
2026-04-09,3.3749122034516383
2026-04-10,3.3749122034516383
2026-04-13,3.4735949218735023
2026-04-14,3.469263610776887
2026-04-15,3.509927151692561
2026-04-16,3.5905694801497106
2026-04-17,3.6726248377094515
2026-04-20,3.7024525237586827
2026-04-21,3.7627025915655254
2026-04-22,3.8138661063325885
2026-04-23,3.9618282314032944
2026-04-24,4.311416326754459
2026-04-27,4.298458311800917
2026-04-28,4.116578872451629
2026-04-29,4.1952798178688955
2026-04-30,4.1952798178688955
2026-05-01,4.1952798178688955
2026-05-04,4.062934974739425
2026-05-05,4.207330858939708
2026-05-06,4.635422806455091
2026-05-07,4.406259489878286
2026-05-08,4.600483744553795
2026-05-11,4.584625818972757
2026-05-12,4.2580015101881425
2026-05-13,4.428494929949478
2026-05-14,4.487185305049195
2026-05-15,4.415058301718352
2026-05-18,4.27315904147239
2026-05-19,4.23805048014749
2026-05-20,4.407674342430777
2026-05-21,4.417842717977601
2026-05-22,4.5084977135172215
2026-05-26,4.7174669907032705
2026-05-27,4.56100033213734
