Date,Value
2018-01-02,1.0
2018-01-03,1.0
2018-01-04,1.0
2018-01-05,1.0
2018-01-08,1.0243276923826679
2018-01-09,1.022997488831695
2018-01-10,1.0174173973635758
2018-01-11,1.0211812661577055
2018-01-12,1.0218670095042373
2018-01-16,1.0110189039761224
2018-01-17,1.0033537155457177
2018-01-18,1.0055327852413491
2018-01-19,1.0107595204705697
2018-01-22,1.0266641492693411
2018-01-23,1.0370506002091653
2018-01-24,1.0315899809014624
2018-01-25,1.0377177153835089
2018-01-26,1.0803215376620308
2018-01-29,1.08553545609109
2018-01-30,1.0652055521596158
2018-01-31,1.0652055521596158
2018-02-01,1.0652055521596158
2018-02-02,1.0652055521596158
2018-02-05,1.0491902759003398
2018-02-06,1.051334479540952
2018-02-07,1.0501554237849444
2018-02-08,1.0354580356803633
2018-02-09,1.026249298101283
2018-02-12,1.0418160890561756
2018-02-13,1.0382298038881292
2018-02-14,1.070024551482165
2018-02-15,1.085356357041428
2018-02-16,1.0827017207904257
2018-02-20,1.0936564283013153
2018-02-21,1.0756318292338105
2018-02-22,1.0753443825668487
2018-02-23,1.0891388652497702
2018-02-26,1.0959942306721386
2018-02-27,1.0952742785938752
2018-02-28,1.0972022252616047
2018-03-01,1.0933649741770683
2018-03-02,1.1040038566880157
2018-03-05,1.1096266835278303
2018-03-06,1.1142460564163699
2018-03-07,1.1187613870509119
2018-03-08,1.1265227645716727
2018-03-09,1.1301641640854705
2018-03-12,1.1215713318206686
2018-03-13,1.1107188401672752
2018-03-14,1.1069779669638171
2018-03-15,1.082622318977489
2018-03-16,1.0751427312219648
2018-03-19,1.0721884403216
2018-03-20,1.0801075566687595
2018-03-21,1.0788831575246305
2018-03-22,1.0609850806816872
2018-03-23,1.0409921393581563
2018-03-26,1.0611263454094952
2018-03-27,1.0330414689278058
2018-03-28,1.024118599294154
2018-03-29,1.024118599294154
2018-04-02,1.0053969098466013
2018-04-03,1.0114149432101553
2018-04-04,1.0183435219560497
2018-04-05,1.0285300703415874
2018-04-06,1.0248879539384048
2018-04-09,1.015403699947321
2018-04-10,1.0200930847649325
2018-04-11,1.019284783541254
2018-04-12,1.0281356533597168
2018-04-13,1.0203413656911127
2018-04-16,1.025545066830467
2018-04-17,1.035056676692598
2018-04-18,1.03579761933594
2018-04-19,1.0310967236149025
2018-04-20,1.0283907354600497
2018-04-23,1.0287452802642778
2018-04-24,1.018676172987322
2018-04-25,1.016986737044034
2018-04-26,1.026838344799486
2018-04-27,1.0250625269195406
2018-04-30,1.0247693719833304
2018-05-01,1.0299537235012566
2018-05-02,1.0301328431169297
2018-05-03,1.0312565549245107
2018-05-04,1.0368870589510144
2018-05-07,1.0443050608157756
2018-05-08,1.0531087219915762
2018-05-09,1.0659962778927996
2018-05-10,1.0666171621160037
2018-05-11,1.0623757221401111
2018-05-14,1.055135850845033
2018-05-15,1.0561151442516747
2018-05-16,1.0535370720833424
2018-05-17,1.0532484340565555
2018-05-18,1.0571566056008863
2018-05-21,1.06421067230192
2018-05-22,1.0616439780092572
2018-05-23,1.071445369240776
2018-05-24,1.0759226133323314
2018-05-25,1.0742665044685178
2018-05-29,1.0706192102450722
2018-05-30,1.0792878408833237
2018-05-31,1.079233673856288
2018-06-01,1.08316737283576
2018-06-04,1.07714467352947
2018-06-05,1.0763978861948766
2018-06-06,1.0778564565987556
2018-06-07,1.0703418990292017
2018-06-08,1.0746592816685345
2018-06-11,1.092795430762437
2018-06-12,1.098892576389932
2018-06-13,1.1196370233075608
2018-06-14,1.1194613482452125
2018-06-15,1.110956652922129
2018-06-18,1.141861736757558
2018-06-19,1.1470721725036332
2018-06-20,1.1572679085588815
2018-06-21,1.12469885177997
2018-06-22,1.1240171538612767
2018-06-25,1.0790167511126234
2018-06-26,1.0790167511126234
2018-06-27,1.0790167511126234
2018-06-28,1.0790167511126234
2018-06-29,1.0790167511126234
2018-07-02,1.0663454264763486
2018-07-03,1.060984616154406
2018-07-05,1.0664923927110277
2018-07-06,1.0733928378595254
2018-07-09,1.077026259444673
2018-07-10,1.07275428852236
2018-07-11,1.0658404036279383
2018-07-12,1.0715860324645048
2018-07-13,1.0498490089673345
2018-07-16,1.0631189326588706
2018-07-17,1.0619501886850613
2018-07-18,1.0613053552437197
2018-07-19,1.0567915826490293
2018-07-20,1.0500210159990462
2018-07-23,1.0406138871502586
2018-07-24,1.0111998520179482
2018-07-25,1.0233028849927897
2018-07-26,1.095710877959859
2018-07-27,1.102038278066428
2018-07-30,1.104217263766298
2018-07-31,1.0897894548352558
2018-08-01,1.0897894548352558
2018-08-02,1.0897894548352558
2018-08-03,1.0897894548352558
2018-08-06,1.0999033501795406
2018-08-07,1.1055479728017337
2018-08-08,1.0830725570668807
2018-08-09,1.0692266476874035
2018-08-10,1.0680727943964037
2018-08-13,1.0808194450974113
2018-08-14,1.0991765214170017
2018-08-15,1.0855592599896127
2018-08-16,1.0780544666415943
2018-08-17,1.0962705070080612
2018-08-20,1.104358927163434
2018-08-21,1.1163928600543085
2018-08-22,1.1426758843759535
2018-08-23,1.1973935898528225
2018-08-24,1.2261494614089947
2018-08-27,1.2468743236798971
2018-08-28,1.2579535084955502
2018-08-29,1.2854360103404434
2018-08-30,1.2745521265358817
2018-08-31,1.2860546249409541
2018-09-04,1.2951751717430575
2018-09-05,1.287014988784068
2018-09-06,1.294297308808194
2018-09-07,1.290195817893358
2018-09-10,1.3095331296641346
2018-09-11,1.3098666153444065
2018-09-12,1.3214538767947837
2018-09-13,1.3122639028079102
2018-09-14,1.3122639028079102
2018-09-17,1.3017491487647261
2018-09-18,1.3161141729362644
2018-09-19,1.310993118827545
2018-09-20,1.3100978818215137
2018-09-21,1.302651570188156
2018-09-24,1.3059051693564891
2018-09-25,1.3092250545783002
2018-09-26,1.3023033573719123
2018-09-27,1.2902282753124041
2018-09-28,1.2963257209824346
2018-10-01,1.2881221611311324
2018-10-02,1.2794871129652017
2018-10-03,1.2763748721462966
2018-10-04,1.2752350974421995
2018-10-05,1.2701421824088883
2018-10-08,1.2697208689301847
2018-10-09,1.2739519878686965
2018-10-10,1.2525465131833464
2018-10-11,1.2525465131833464
2018-10-12,1.2525465131833464
2018-10-15,1.2546574277739642
2018-10-16,1.2605458113412376
2018-10-17,1.267711733523315
2018-10-18,1.265156455505728
2018-10-19,1.2652675414551027
2018-10-22,1.2659500412750264
2018-10-23,1.2675973856734766
2018-10-24,1.2626503629007164
2018-10-25,1.2729203801435287
2018-10-26,1.2671956553311559
2018-10-29,1.2724386238098975
2018-10-30,1.2724386238098975
2018-10-31,1.2724386238098975
2018-11-01,1.2724386238098975
2018-11-02,1.2724386238098975
2018-11-05,1.2724386238098975
2018-11-06,1.2724386238098975
2018-11-07,1.2724386238098975
2018-11-08,1.2724386238098975
2018-11-09,1.2724386238098975
2018-11-12,1.2724386238098975
2018-11-13,1.2724386238098975
2018-11-14,1.2724386238098975
2018-11-15,1.2724386238098975
2018-11-16,1.2724386238098975
2018-11-19,1.2724386238098975
2018-11-20,1.2724386238098975
2018-11-21,1.2724386238098975
2018-11-23,1.2724386238098975
2018-11-26,1.2724386238098975
2018-11-27,1.2724386238098975
2018-11-28,1.2724386238098975
2018-11-29,1.2724386238098975
2018-11-30,1.2724386238098975
2018-12-03,1.2724386238098975
2018-12-04,1.2724386238098975
2018-12-06,1.2724386238098975
2018-12-07,1.2724386238098975
2018-12-10,1.2724386238098975
2018-12-11,1.2724386238098975
2018-12-12,1.2724386238098975
2018-12-13,1.2724386238098975
2018-12-14,1.2724386238098975
2018-12-17,1.2724386238098975
2018-12-18,1.2724386238098975
2018-12-19,1.2724386238098975
2018-12-20,1.2724386238098975
2018-12-21,1.2724386238098975
2018-12-24,1.2724386238098975
2018-12-26,1.2724386238098975
2018-12-27,1.2724386238098975
2018-12-28,1.2724386238098975
2018-12-31,1.2724386238098975
2019-01-02,1.2724386238098975
2019-01-03,1.2724386238098975
2019-01-04,1.2724386238098975
2019-01-07,1.2724386238098975
2019-01-08,1.2724386238098975
2019-01-09,1.2724386238098975
2019-01-10,1.2724386238098975
2019-01-11,1.2724386238098975
2019-01-14,1.2724386238098975
2019-01-15,1.2724386238098975
2019-01-16,1.2724386238098975
2019-01-17,1.2724386238098975
2019-01-18,1.2724386238098975
2019-01-22,1.2724386238098975
2019-01-23,1.2724386238098975
2019-01-24,1.2724386238098975
2019-01-25,1.2724386238098975
2019-01-28,1.2724386238098975
2019-01-29,1.2724386238098975
2019-01-30,1.2724386238098975
2019-01-31,1.2724386238098975
2019-02-01,1.2724386238098975
2019-02-04,1.2724386238098975
2019-02-05,1.2724386238098975
2019-02-06,1.2724386238098975
2019-02-07,1.2724386238098975
2019-02-08,1.2724386238098975
2019-02-11,1.2724386238098975
2019-02-12,1.2724386238098975
2019-02-13,1.2724386238098975
2019-02-14,1.2724386238098975
2019-02-15,1.2724386238098975
2019-02-19,1.267815401837328
2019-02-20,1.2774747755413334
2019-02-21,1.282157303055801
2019-02-22,1.3032080242740134
2019-02-25,1.3153799986115424
2019-02-26,1.2640703696347995
2019-02-27,1.2592882523863982
2019-02-28,1.2553851022775107
2019-03-01,1.2577056992203146
2019-03-04,1.23447916276691
2019-03-05,1.2107571351251687
2019-03-06,1.218447828207317
2019-03-07,1.227905279095467
2019-03-08,1.242039500125099
2019-03-11,1.2711393459620681
2019-03-12,1.2743611297585122
2019-03-13,1.2863128712705874
2019-03-14,1.308553467448518
2019-03-15,1.3111516686776297
2019-03-18,1.3383020306659228
2019-03-19,1.3484622246624887
2019-03-20,1.367116459401367
2019-03-21,1.4429022243454008
2019-03-22,1.3935588862544561
2019-03-25,1.3698680268670724
2019-03-26,1.3665332380067974
2019-03-27,1.347450890052209
2019-03-28,1.3474971810432548
2019-03-29,1.351387815162422
2019-04-01,1.3439624268096066
2019-04-02,1.3304926317523695
2019-04-03,1.3248122769772208
2019-04-04,1.2603493206837644
2019-04-05,1.2603493206837644
2019-04-08,1.2476741612596483
2019-04-09,1.2355108835954165
2019-04-10,1.2823555955044683
2019-04-11,1.282084641762049
2019-04-12,1.2791960233580135
2019-04-15,1.2770284301247785
2019-04-16,1.2591263662225693
2019-04-17,1.2339913541756187
2019-04-18,1.2381647079499556
2019-04-22,1.2657252365169345
2019-04-23,1.2979096493771887
2019-04-24,1.3095246371669833
2019-04-25,1.2783182829832103
2019-04-26,1.2953129686657847
2019-04-29,1.2958653468118835
2019-04-30,1.2858708280195768
2019-05-01,1.2697190624457595
2019-05-02,1.3081921667301184
2019-05-03,1.3233102826212413
2019-05-06,1.297681503223121
2019-05-07,1.2515354228688547
2019-05-08,1.2464223732098805
2019-05-09,1.2355493545970364
2019-05-10,1.2355493545970364
2019-05-13,1.2396830856912784
2019-05-14,1.2592405240307682
2019-05-15,1.265580212284798
2019-05-16,1.2658193685231192
2019-05-17,1.2488548773808326
2019-05-20,1.2352002059461906
2019-05-21,1.2345481262490663
2019-05-22,1.2325690200305053
2019-05-23,1.2389638906998148
2019-05-24,1.2457591630206029
2019-05-28,1.2549245444331327
2019-05-29,1.2285715422338601
2019-05-30,1.236145709415274
2019-05-31,1.224102552415284
2019-06-03,1.223407745850207
2019-06-04,1.223407745850207
2019-06-05,1.223407745850207
2019-06-06,1.223407745850207
2019-06-07,1.223407745850207
2019-06-10,1.2189567127369907
2019-06-11,1.1857867819852257
2019-06-12,1.2042562521011138
2019-06-13,1.2002960550407007
2019-06-14,1.1920309109545948
2019-06-17,1.1909739682637936
2019-06-18,1.1926647827833454
2019-06-19,1.2296041309266936
2019-06-20,1.2286454142640202
2019-06-21,1.2149032127510444
2019-06-24,1.1870868683535467
2019-06-25,1.155918252630181
2019-06-26,1.1508146882846497
2019-06-27,1.1522057071591354
2019-06-28,1.1532609891044507
2019-07-01,1.1532997358708488
2019-07-02,1.17401879518391
2019-07-03,1.1828071660409836
2019-07-05,1.1879933173184969
2019-07-08,1.193478445212359
2019-07-09,1.2054362984620914
2019-07-10,1.1930495074225
2019-07-11,1.186610784877786
2019-07-12,1.1849375400190367
2019-07-15,1.2109741696668368
2019-07-16,1.1881526517904422
2019-07-17,1.2005141505096741
2019-07-18,1.227418629756185
2019-07-19,1.2042409740502542
2019-07-22,1.22322733651415
2019-07-23,1.2124422256769367
2019-07-24,1.2354003978511088
2019-07-25,1.235094766268423
2019-07-26,1.2430625104702155
2019-07-29,1.2110412900885477
2019-07-30,1.1823429550798625
2019-07-31,1.1770278194222379
2019-08-01,1.2248150945678713
2019-08-02,1.196740805427674
2019-08-05,1.1654871598791203
2019-08-06,1.1705336058974958
2019-08-07,1.17127503920689
2019-08-08,1.1745181150043698
2019-08-09,1.1746108181311863
2019-08-12,1.1701016157480166
2019-08-13,1.1774119363461009
2019-08-14,1.15900168213587
2019-08-15,1.1595034842126526
2019-08-16,1.1686901260542066
2019-08-19,1.1715916330220812
2019-08-20,1.178909764683516
2019-08-21,1.1929148254458306
2019-08-22,1.1924091191490178
2019-08-23,1.182253803596335
2019-08-26,1.1983689349500448
2019-08-27,1.2059160783443796
2019-08-28,1.199202675970919
2019-08-29,1.198679490315338
2019-08-30,1.1808462017725936
2019-09-03,1.1814256369047706
2019-09-04,1.1753255402812108
2019-09-05,1.1801132944637067
2019-09-06,1.1706607662647461
2019-09-09,1.1455700589012274
2019-09-10,1.148649295478981
2019-09-11,1.1615585291680754
2019-09-12,1.1610847363241048
2019-09-13,1.1617952402975915
2019-09-16,1.1668583967987
2019-09-17,1.1803735481966866
2019-09-18,1.1964971031683476
2019-09-19,1.185800458422687
2019-09-20,1.1714662195193797
2019-09-23,1.1845590392559475
2019-09-24,1.1675572824298086
2019-09-25,1.194425446510265
2019-09-26,1.189275400720517
2019-09-27,1.1523807525903966
2019-09-30,1.157792675780889
2019-10-01,1.152490947289106
2019-10-02,1.1372066637721883
2019-10-03,1.1457656515696026
2019-10-04,1.1668007794786979
2019-10-07,1.1651515396505154
2019-10-08,1.1348207824105847
2019-10-09,1.152869025626596
2019-10-10,1.1544403344593643
2019-10-11,1.1682341766764264
2019-10-14,1.1625921255616665
2019-10-15,1.1833415098016073
2019-10-16,1.1631049027459404
2019-10-17,1.1718768877247951
2019-10-18,1.1619605829507416
2019-10-21,1.1842817850676268
2019-10-22,1.1753438992978174
2019-10-23,1.1576308381490752
2019-10-24,1.2363881329074538
2019-10-25,1.2465340755044187
2019-10-28,1.2789654845139489
2019-10-29,1.255924624187018
2019-10-30,1.2674265563817544
2019-10-31,1.2230502293060965
2019-11-01,1.2230502293060965
2019-11-04,1.2240872645176508
2019-11-05,1.2232741394091495
2019-11-06,1.2361277641821506
2019-11-07,1.250475685759369
2019-11-08,1.2504606623779844
2019-11-11,1.2628027817132277
2019-11-12,1.2694748972729908
2019-11-13,1.267405112413401
2019-11-14,1.279443071659502
2019-11-15,1.303681918803954
2019-11-18,1.2973066837886895
2019-11-19,1.3028464005217701
2019-11-20,1.2829215706943207
2019-11-21,1.2656490839254508
2019-11-22,1.2287425732432546
2019-11-25,1.2190144324447798
2019-11-26,1.1933319409596166
2019-11-27,1.2040932919950906
2019-11-29,1.197640541708235
2019-12-02,1.199904571051763
2019-12-03,1.2049218615078576
2019-12-04,1.2115529768329714
2019-12-05,1.205718013356568
2019-12-06,1.2157229384662505
2019-12-09,1.2113301357210036
2019-12-10,1.2358744084844049
2019-12-11,1.243228430793316
2019-12-12,1.2561494759116238
2019-12-13,1.253847763903504
2019-12-16,1.30872862484193
2019-12-17,1.292708844338121
2019-12-18,1.3217492144651282
2019-12-19,1.3431679549949092
2019-12-20,1.3510610714724276
2019-12-23,1.3730094407656233
2019-12-24,1.3876270444415284
2019-12-26,1.395023794748337
2019-12-27,1.3914524956641419
2019-12-30,1.3676307584229948
2019-12-31,1.37060372586502
2020-01-02,1.367046124676163
2020-01-03,1.3600479929450102
2020-01-06,1.3695907662989213
2020-01-07,1.3699320890692164
2020-01-08,1.3795074565483358
2020-01-09,1.3973866002676703
2020-01-10,1.3826297984961777
2020-01-13,1.3866918458121575
2020-01-14,1.3935676221777253
2020-01-15,1.4036047408346795
2020-01-16,1.4122100547082042
2020-01-17,1.4292363467458498
2020-01-21,1.406227108065715
2020-01-22,1.411602258270265
2020-01-23,1.4155628668634888
2020-01-24,1.3963255326234107
2020-01-27,1.373917602214532
2020-01-28,1.3795268825015674
2020-01-29,1.3884272220047529
2020-01-30,1.4262141495560325
2020-01-31,1.432379301209816
2020-02-03,1.4854587737196747
2020-02-04,1.510288522422287
2020-02-05,1.4836973873029478
2020-02-06,1.4836973873029478
2020-02-07,1.4836973873029478
2020-02-10,1.5256640024889938
2020-02-11,1.5283103583073157
2020-02-12,1.6248174021645343
2020-02-13,1.642656972531313
2020-02-14,1.6452952036658912
2020-02-18,1.683688422841228
2020-02-19,1.7577884299492867
2020-02-20,1.7403244813242178
2020-02-21,1.686144482828682
2020-02-24,1.6257298523836987
2020-02-25,1.605072691305814
2020-02-26,1.6090523564136279
2020-02-27,1.5856634041210753
2020-02-28,1.5856634041210753
2020-03-02,1.6025842668092825
2020-03-03,1.5846443796323333
2020-03-04,1.6397450576950083
2020-03-05,1.6189520457832773
2020-03-06,1.614149340180965
2020-03-09,1.5522380752064457
2020-03-10,1.5522380752064457
2020-03-11,1.5522380752064457
2020-03-12,1.5522380752064457
2020-03-13,1.5522380752064457
2020-03-16,1.5522380752064457
2020-03-17,1.5522380752064457
2020-03-18,1.5522380752064457
2020-03-19,1.5522380752064457
2020-03-20,1.5522380752064457
2020-03-23,1.5522380752064457
2020-03-24,1.5522380752064457
2020-03-25,1.5522380752064457
2020-03-26,1.5522380752064457
2020-03-27,1.5522380752064457
2020-03-30,1.5522380752064457
2020-03-31,1.5522380752064457
2020-04-01,1.5522380752064457
2020-04-02,1.5522380752064457
2020-04-03,1.5522380752064457
2020-04-06,1.5522380752064457
2020-04-07,1.5522380752064457
2020-04-08,1.5522380752064457
2020-04-09,1.5522380752064457
2020-04-13,1.540231746862101
2020-04-14,1.620858883722244
2020-04-15,1.6754983816410913
2020-04-16,1.7022812972292114
2020-04-17,1.6908070159115112
2020-04-20,1.7285096455273021
2020-04-21,1.6588880541304718
2020-04-22,1.6588880541304718
2020-04-23,1.6588880541304718
2020-04-24,1.6588880541304718
2020-04-27,1.593280856009128
2020-04-28,1.571775562332002
2020-04-29,1.5692651850611692
2020-04-30,1.5596263039875395
2020-05-01,1.531212925814583
2020-05-04,1.6167216511344207
2020-05-05,1.6715705268107892
2020-05-06,1.6570133899170563
2020-05-07,1.6634148025059492
2020-05-08,1.7115988821086563
2020-05-11,1.7182439165457728
2020-05-12,1.6921720673478613
2020-05-13,1.6838754024391875
2020-05-14,1.6748013896513325
2020-05-15,1.6832954984132562
2020-05-18,1.6243510207519702
2020-05-19,1.6369254818769092
2020-05-20,1.692326327589639
2020-05-21,1.6960009714802964
2020-05-22,1.7340019699075295
2020-05-26,1.6376213438995466
2020-05-27,1.619952142152528
2020-05-28,1.619952142152528
2020-05-29,1.619952142152528
2020-06-01,1.6731578300281513
2020-06-02,1.66092080884348
2020-06-03,1.6575256027804939
2020-06-04,1.6082946291747489
2020-06-05,1.575256188415885
2020-06-08,1.579653567420563
2020-06-09,1.5717191481712711
2020-06-10,1.5971245843312638
2020-06-11,1.5400532544426062
2020-06-12,1.5330810628918274
2020-06-15,1.5972953037427495
2020-06-16,1.6220450504382546
2020-06-17,1.6076758623884677
2020-06-18,1.6212556403351062
2020-06-19,1.6054422418404337
2020-06-22,1.654770696132677
2020-06-23,1.6406774290458062
2020-06-24,1.6196250822420577
2020-06-25,1.641839290538603
2020-06-26,1.5695124658841864
2020-06-29,1.5501619617200606
2020-06-30,1.5835926050842881
2020-07-01,1.5682143452832569
2020-07-02,1.582700910924497
2020-07-06,1.558137919740377
2020-07-07,1.562787932438812
2020-07-08,1.6129995889353674
2020-07-09,1.6423098450428837
2020-07-10,1.6416856832004165
2020-07-13,1.5567419738448862
2020-07-14,1.5471366273897402
2020-07-15,1.5471366273897402
2020-07-16,1.5471366273897402
2020-07-17,1.5471366273897402
2020-07-20,1.6438291771545437
2020-07-21,1.5933794149023524
2020-07-22,1.594899496826891
2020-07-23,1.5034215474674126
2020-07-24,1.500092822017069
2020-07-27,1.5813909241503348
2020-07-28,1.552084466230037
2020-07-29,1.5802067726789648
2020-07-30,1.597123029470596
2020-07-31,1.576871550885919
2020-08-03,1.6213018832630919
2020-08-04,1.609654004343394
2020-08-05,1.609486864366282
2020-08-06,1.559243459011927
2020-08-07,1.5398191847504514
2020-08-10,1.4964367576510995
2020-08-11,1.4370642160525442
2020-08-12,1.5320887846587024
2020-08-13,1.566986097865443
2020-08-14,1.5826382615684669
2020-08-17,1.6121929536867357
2020-08-18,1.611248726434363
2020-08-19,1.6050182720362969
2020-08-20,1.6026265665771189
2020-08-21,1.6173534903608164
2020-08-24,1.6177272358587098
2020-08-25,1.61145645672564
2020-08-26,1.6227462961205714
2020-08-27,1.6130657937080373
2020-08-28,1.6255064268885062
2020-08-31,1.65790735270753
2020-09-01,1.708691747837396
2020-09-02,1.6855736919811974
2020-09-03,1.6428648522360563
2020-09-04,1.6335770791654145
2020-09-08,1.6347654016238673
2020-09-09,1.6503154975403378
2020-09-10,1.6458508012001833
2020-09-11,1.637872040711501
2020-09-14,1.6461964439415824
2020-09-15,1.664237043833343
2020-09-16,1.6614391192690146
2020-09-17,1.6428717056863409
2020-09-18,1.6490640151402927
2020-09-21,1.674459077255249
2020-09-22,1.6937223793243685
2020-09-23,1.660589840859238
2020-09-24,1.6481269289842997
2020-09-25,1.66494320395656
2020-09-28,1.6749585671302065
2020-09-29,1.6728103598403732
2020-09-30,1.6824988654533022
2020-10-01,1.703958703458404
2020-10-02,1.6848066783787066
2020-10-05,1.707161788060827
2020-10-06,1.7056058925635376
2020-10-07,1.720509876905649
2020-10-08,1.7157730878044415
2020-10-09,1.727480549400635
2020-10-12,1.7370150536857238
2020-10-13,1.7585990294467937
2020-10-14,1.7340031739230293
2020-10-15,1.7183267989670306
2020-10-16,1.719735741641001
2020-10-19,1.697047737685318
2020-10-20,1.6986774379288934
2020-10-21,1.694378329782501
2020-10-22,1.694378329782501
2020-10-23,1.694378329782501
2020-10-26,1.682926131097463
2020-10-27,1.6822977318697088
2020-10-28,1.6650288975171241
2020-10-29,1.6900752260827394
2020-10-30,1.6466399412020487
2020-11-02,1.6538935732562823
2020-11-03,1.6718004453795317
2020-11-04,1.678575363403219
2020-11-05,1.728342108426341
2020-11-06,1.7361225477403646
2020-11-09,1.7376224230983506
2020-11-10,1.7323723407023621
2020-11-11,1.7596198443885172
2020-11-12,1.7407500448063504
2020-11-13,1.7476059462387203
2020-11-16,1.7776086259052994
2020-11-17,1.7741833485165974
2020-11-18,1.7608325627189503
2020-11-19,1.7636429699658407
2020-11-20,1.752553407736532
2020-11-23,1.750979870600653
2020-11-24,1.759286753549312
2020-11-25,1.7562073688739213
2020-11-27,1.759235110012065
2020-11-30,1.7458972559397137
2020-12-01,1.7474169259984242
2020-12-02,1.7497375837579816
2020-12-03,1.7510574913255954
2020-12-04,1.758044599922988
2020-12-07,1.7493290492009161
2020-12-08,1.7561742009168337
2020-12-09,1.7330642767348006
2020-12-10,1.7291394451123054
2020-12-11,1.7241351454487341
2020-12-14,1.7352461451728056
2020-12-15,1.7612981076194147
2020-12-16,1.758965149425813
2020-12-17,1.7547730469090277
2020-12-18,1.7501326602118534
2020-12-21,1.7456991718036112
2020-12-22,1.7303678665255549
2020-12-23,1.7215056743477528
2020-12-24,1.7326176021352866
2020-12-28,1.7337062236328165
2020-12-29,1.723787964916194
2020-12-30,1.7415155822573525
2020-12-31,1.7867879000938074
2021-01-04,1.764998426268166
2021-01-05,1.8034534868537475
2021-01-06,1.8016566019829132
2021-01-07,1.82561616026506
2021-01-08,1.8053706076320233
2021-01-11,1.759940418854817
2021-01-12,1.7994735279915846
2021-01-13,1.8046102811189746
2021-01-14,1.7948845526311041
2021-01-15,1.7754125622686954
2021-01-19,1.8294540639859225
2021-01-20,1.8238171601049171
2021-01-21,1.8192792810971259
2021-01-22,1.8070388726459239
2021-01-25,1.8575663962487812
2021-01-26,1.8379089350648925
2021-01-27,1.814687348153837
2021-01-28,1.7849935161869732
2021-01-29,1.7292007051175675
2021-02-01,1.7340528883309836
2021-02-02,1.751132024235499
2021-02-03,1.728336878353614
2021-02-04,1.7716429787458616
2021-02-05,1.7655724982877112
2021-02-08,1.7785756779802466
2021-02-09,1.786374575464277
2021-02-10,1.8190323515127214
2021-02-11,1.87169264406666
2021-02-12,1.9110721738412786
2021-02-16,1.9204843162874763
2021-02-17,1.880496688902559
2021-02-18,1.8751963228795852
2021-02-19,1.8938239222986417
2021-02-22,1.8214129201173872
2021-02-23,1.815065880537515
2021-02-24,1.815065880537515
2021-02-25,1.815065880537515
2021-02-26,1.815065880537515
2021-03-01,1.8201285111107448
2021-03-02,1.7847267172056687
2021-03-03,1.7675096239406003
2021-03-04,1.7424632453160145
2021-03-05,1.7424632453160145
2021-03-08,1.6976544400315088
2021-03-09,1.7515375810737623
2021-03-10,1.7264579619264298
2021-03-11,1.7630563294793515
2021-03-12,1.744282819363888
2021-03-15,1.751872963300339
2021-03-16,1.7785421432437722
2021-03-17,1.800326751942923
2021-03-18,1.7543267513771368
2021-03-19,1.7599603625458289
2021-03-22,1.7810097843139983
2021-03-23,1.7406977989391454
2021-03-24,1.7589257063695154
2021-03-25,1.7535962659679654
2021-03-26,1.7880438939156538
2021-03-29,1.7835488320804815
2021-03-30,1.777443092996596
2021-03-31,1.8070595113343573
2021-04-01,1.8453005640700955
2021-04-05,1.878907173572773
2021-04-06,1.8517116171754018
2021-04-07,1.8597708278450247
2021-04-08,1.871716978890344
2021-04-09,1.886859521006134
2021-04-12,1.8398565189944494
2021-04-13,1.8372118261052433
2021-04-14,1.8203702818424299
2021-04-15,1.8203702818424299
2021-04-16,1.8203702818424299
2021-04-19,1.8238153565081294
2021-04-20,1.8259916043006097
2021-04-21,1.7960600789502508
2021-04-22,1.7785062961924458
2021-04-23,1.79732165381924
2021-04-26,1.8013581897139859
2021-04-27,1.7889466295407697
2021-04-28,1.825360488722045
2021-04-29,1.839564912318596
2021-04-30,1.8335173708285506
2021-05-03,1.8301640778539947
2021-05-04,1.7951091047834582
2021-05-05,1.7853681832180444
2021-05-06,1.7992547807647512
2021-05-07,1.8209639543793295
2021-05-10,1.7757219604915577
2021-05-11,1.7597232849176747
2021-05-12,1.74350778286931
2021-05-13,1.74350778286931
2021-05-14,1.74350778286931
2021-05-17,1.7442734144408223
2021-05-18,1.732473533229876
2021-05-19,1.7294134241676367
2021-05-20,1.736391879865585
2021-05-21,1.733083340889989
2021-05-24,1.743559426455749
2021-05-25,1.7419471898916932
2021-05-26,1.7464613852100268
2021-05-27,1.7504798412383193
2021-05-28,1.742270996542795
2021-06-01,1.7518895696346939
2021-06-02,1.7595602757017248
2021-06-03,1.7641904282123024
2021-06-04,1.7898351919860933
2021-06-07,1.809960330042844
2021-06-08,1.8132442790859404
2021-06-09,1.8074935092032471
2021-06-10,1.7863265589642146
2021-06-11,1.7912095930259668
2021-06-14,1.7958118923690316
2021-06-15,1.7850839584027987
2021-06-16,1.7675116230281156
2021-06-17,1.7750600653259228
2021-06-18,1.7655375992242839
2021-06-21,1.768810137926284
2021-06-22,1.8002076342481828
2021-06-23,1.8105496768813696
2021-06-24,1.8212572057877217
2021-06-25,1.8103756965005835
2021-06-28,1.8759463170283572
2021-06-29,1.8727352141276814
2021-06-30,1.865761782045761
2021-07-01,1.8850911219449564
2021-07-02,1.8987048889266425
2021-07-06,1.9061750856349606
2021-07-07,1.8873275845916857
2021-07-08,1.8581160266269992
2021-07-09,1.871817855352182
2021-07-12,1.8977866639504066
2021-07-13,1.883715152432205
2021-07-14,1.857932389734426
2021-07-15,1.8428296851026555
2021-07-16,1.8428296851026555
2021-07-19,1.842239224850842
2021-07-20,1.8563698277390297
2021-07-21,1.8645154096445724
2021-07-22,1.879579756013917
2021-07-23,1.8878294307892605
2021-07-26,1.8847668478169524
2021-07-27,1.876930143114006
2021-07-28,1.8791233518335504
2021-07-29,1.8819453398494383
2021-07-30,1.8860108752893279
2021-08-02,1.8815377152917472
2021-08-03,1.8859373224364586
2021-08-04,1.8947308386644588
2021-08-05,1.901423830896905
2021-08-06,1.897453125364247
2021-08-09,1.896669881215906
2021-08-10,1.886242731337762
2021-08-11,1.8914613320757094
2021-08-12,1.9021519200473027
2021-08-13,1.9079424227764894
2021-08-16,1.909691770089344
2021-08-17,1.9016775318297023
2021-08-18,1.8927194942972205
2021-08-19,1.9107036620303712
2021-08-20,1.9198202499756403
2021-08-23,1.9337371029769437
2021-08-24,1.9354407255220578
2021-08-25,1.9383340953058315
2021-08-26,1.9349633655583212
2021-08-27,1.9396487886059657
2021-08-30,1.9526566582017544
2021-08-31,1.9592778089646783
2021-09-01,1.9464268343751112
2021-09-02,1.9549161089539597
2021-09-03,1.9633470619867357
2021-09-07,1.9543639091214917
2021-09-08,1.9715754872142754
2021-09-09,1.9799146311762494
2021-09-10,1.9509886373468488
2021-09-13,1.9313195235420835
2021-09-14,1.9519978182386417
2021-09-15,1.9590814271183474
2021-09-16,1.9950716759239993
2021-09-17,1.9878450432371322
2021-09-20,1.9788359248706415
2021-09-21,2.000605536509599
2021-09-22,2.046188199592998
2021-09-23,2.04103200856881
2021-09-24,2.033762593861022
2021-09-27,1.9708569488524064
2021-09-28,1.9298235670120436
2021-09-29,1.9247759909040483
2021-09-30,1.9377128646092492
2021-10-01,1.9406937066135526
2021-10-04,1.8975274662940391
2021-10-05,1.9136003308053118
2021-10-06,1.9183651471239043
2021-10-07,1.9143050101768293
2021-10-08,1.908332208650636
2021-10-11,1.9212828522573169
2021-10-12,1.9387153260694203
2021-10-13,1.9725516597393797
2021-10-14,1.962601740538699
2021-10-15,1.971070278204003
2021-10-18,1.9880155146228309
2021-10-19,1.9871682587305801
2021-10-20,1.9896704600250588
2021-10-21,1.992824810890204
2021-10-22,1.9940142808102888
2021-10-25,1.985144805166411
2021-10-26,1.9873543993777774
2021-10-27,1.964604053968794
2021-10-28,1.9777241055733759
2021-10-29,1.9980249439117521
2021-11-01,2.0473377603844334
2021-11-02,2.0143172168571963
2021-11-03,2.0438521767765145
2021-11-04,2.0718243889542487
2021-11-05,2.1197610716516806
2021-11-08,2.0747943560200497
2021-11-09,2.052453683038739
2021-11-10,2.052453683038739
2021-11-11,2.052453683038739
2021-11-12,2.052453683038739
2021-11-15,2.019602510468923
2021-11-16,2.0732098490850603
2021-11-17,2.0303104617279466
2021-11-18,2.028122154061646
2021-11-19,2.0422371833976376
2021-11-22,1.893239197567543
2021-11-23,1.893239197567543
2021-11-24,1.893239197567543
2021-11-26,1.893239197567543
2021-11-29,1.9492843376247522
2021-11-30,1.9075350370818889
2021-12-01,1.8156965166420989
2021-12-02,1.8453450649104473
2021-12-03,1.7686890582987917
2021-12-06,1.7518094595079554
2021-12-07,1.783569247074407
2021-12-08,1.7824202051090303
2021-12-09,1.7758381634488138
2021-12-10,1.770562343448973
2021-12-13,1.740616672615597
2021-12-14,1.7243888249516537
2021-12-15,1.77535969911839
2021-12-16,1.7231576884403381
2021-12-17,1.7431221045852447
2021-12-20,1.7647332863641745
2021-12-21,1.7833464550532672
2021-12-22,1.806362783185651
2021-12-23,1.8166793301892474
2021-12-27,1.8463905531051654
2021-12-28,1.8242102831746134
2021-12-29,1.8321666604749944
2021-12-30,1.8158178269317808
2021-12-31,1.8165434054905107
2022-01-03,1.823750857949535
2022-01-04,1.8288996331791023
2022-01-05,1.7673842406961144
2022-01-06,1.7590991570005927
2022-01-07,1.7491658319260739
2022-01-10,1.749509146321287
2022-01-11,1.7552434530134482
2022-01-12,1.759445569752247
2022-01-13,1.7626746805418025
2022-01-14,1.7854207191511144
2022-01-18,1.7587250928589189
2022-01-19,1.7449593471544491
2022-01-20,1.7307981252890572
2022-01-21,1.7297584055137238
2022-01-24,1.723971278667262
2022-01-25,1.723971278667262
2022-01-26,1.723971278667262
2022-01-27,1.723971278667262
2022-01-28,1.723971278667262
2022-01-31,1.723971278667262
2022-02-01,1.723971278667262
2022-02-02,1.723971278667262
2022-02-03,1.723971278667262
2022-02-04,1.723971278667262
2022-02-07,1.723971278667262
2022-02-08,1.723971278667262
2022-02-09,1.723971278667262
2022-02-10,1.723971278667262
2022-02-11,1.723971278667262
2022-02-14,1.723971278667262
2022-02-15,1.723971278667262
2022-02-16,1.723971278667262
2022-02-17,1.723971278667262
2022-02-18,1.723971278667262
2022-02-22,1.723971278667262
2022-02-23,1.723971278667262
2022-02-24,1.723971278667262
2022-02-25,1.723971278667262
2022-02-28,1.723971278667262
2022-03-01,1.723971278667262
2022-03-02,1.723971278667262
2022-03-03,1.723971278667262
2022-03-04,1.723971278667262
2022-03-07,1.723971278667262
2022-03-08,1.723971278667262
2022-03-09,1.723971278667262
2022-03-10,1.723971278667262
2022-03-11,1.723971278667262
2022-03-14,1.723971278667262
2022-03-15,1.723971278667262
2022-03-16,1.723971278667262
2022-03-17,1.723971278667262
2022-03-18,1.723971278667262
2022-03-21,1.723971278667262
2022-03-22,1.723971278667262
2022-03-23,1.723971278667262
2022-03-24,1.723971278667262
2022-03-25,1.723971278667262
2022-03-28,1.723971278667262
2022-03-29,1.723971278667262
2022-03-30,1.723971278667262
2022-03-31,1.723971278667262
2022-04-01,1.723971278667262
2022-04-04,1.723971278667262
2022-04-05,1.723971278667262
2022-04-06,1.723971278667262
2022-04-07,1.723971278667262
2022-04-08,1.723971278667262
2022-04-11,1.723971278667262
2022-04-12,1.723971278667262
2022-04-13,1.723971278667262
2022-04-14,1.723971278667262
2022-04-18,1.723971278667262
2022-04-19,1.723971278667262
2022-04-20,1.723971278667262
2022-04-21,1.723971278667262
2022-04-22,1.723971278667262
2022-04-25,1.723971278667262
2022-04-26,1.723971278667262
2022-04-27,1.723971278667262
2022-04-28,1.723971278667262
2022-04-29,1.723971278667262
2022-05-02,1.723971278667262
2022-05-03,1.723971278667262
2022-05-04,1.723971278667262
2022-05-05,1.723971278667262
2022-05-06,1.723971278667262
2022-05-09,1.723971278667262
2022-05-10,1.723971278667262
2022-05-11,1.723971278667262
2022-05-12,1.723971278667262
2022-05-13,1.723971278667262
2022-05-16,1.723971278667262
2022-05-17,1.723971278667262
2022-05-18,1.723971278667262
2022-05-19,1.723971278667262
2022-05-20,1.723971278667262
2022-05-23,1.723971278667262
2022-05-24,1.723971278667262
2022-05-25,1.723971278667262
2022-05-26,1.723971278667262
2022-05-27,1.723971278667262
2022-05-31,1.723971278667262
2022-06-01,1.723971278667262
2022-06-02,1.723971278667262
2022-06-03,1.723971278667262
2022-06-06,1.723971278667262
2022-06-07,1.723971278667262
2022-06-08,1.723971278667262
2022-06-09,1.723971278667262
2022-06-10,1.723971278667262
2022-06-13,1.723971278667262
2022-06-14,1.723971278667262
2022-06-15,1.723971278667262
2022-06-16,1.723971278667262
2022-06-17,1.723971278667262
2022-06-21,1.723971278667262
2022-06-22,1.723971278667262
2022-06-23,1.723971278667262
2022-06-24,1.723971278667262
2022-06-27,1.723971278667262
2022-06-28,1.723971278667262
2022-06-29,1.723971278667262
2022-06-30,1.723971278667262
2022-07-01,1.723971278667262
2022-07-05,1.723971278667262
2022-07-06,1.723971278667262
2022-07-07,1.723971278667262
2022-07-08,1.723971278667262
2022-07-11,1.723971278667262
2022-07-12,1.723971278667262
2022-07-13,1.723971278667262
2022-07-14,1.723971278667262
2022-07-15,1.723971278667262
2022-07-18,1.723971278667262
2022-07-19,1.723971278667262
2022-07-20,1.723971278667262
2022-07-21,1.723971278667262
2022-07-22,1.723971278667262
2022-07-25,1.723971278667262
2022-07-26,1.723971278667262
2022-07-27,1.723971278667262
2022-07-28,1.723971278667262
2022-07-29,1.723971278667262
2022-08-01,1.723971278667262
2022-08-02,1.723971278667262
2022-08-03,1.723971278667262
2022-08-04,1.723971278667262
2022-08-05,1.723971278667262
2022-08-08,1.723971278667262
2022-08-09,1.723971278667262
2022-08-10,1.723971278667262
2022-08-11,1.723971278667262
2022-08-12,1.723971278667262
2022-08-15,1.723971278667262
2022-08-16,1.723971278667262
2022-08-17,1.723971278667262
2022-08-18,1.723971278667262
2022-08-19,1.723971278667262
2022-08-22,1.723971278667262
2022-08-23,1.723971278667262
2022-08-24,1.723971278667262
2022-08-25,1.723971278667262
2022-08-26,1.723971278667262
2022-08-29,1.723971278667262
2022-08-30,1.723971278667262
2022-08-31,1.723971278667262
2022-09-01,1.723971278667262
2022-09-02,1.723971278667262
2022-09-06,1.723971278667262
2022-09-07,1.723971278667262
2022-09-08,1.723971278667262
2022-09-09,1.723971278667262
2022-09-12,1.723971278667262
2022-09-13,1.723971278667262
2022-09-14,1.723971278667262
2022-09-15,1.723971278667262
2022-09-16,1.723971278667262
2022-09-19,1.723971278667262
2022-09-20,1.723971278667262
2022-09-21,1.723971278667262
2022-09-22,1.723971278667262
2022-09-23,1.723971278667262
2022-09-26,1.723971278667262
2022-09-27,1.723971278667262
2022-09-28,1.723971278667262
2022-09-29,1.723971278667262
2022-09-30,1.723971278667262
2022-10-03,1.723971278667262
2022-10-04,1.723971278667262
2022-10-05,1.723971278667262
2022-10-06,1.723971278667262
2022-10-07,1.723971278667262
2022-10-10,1.723971278667262
2022-10-11,1.723971278667262
2022-10-12,1.723971278667262
2022-10-13,1.723971278667262
2022-10-14,1.723971278667262
2022-10-17,1.723971278667262
2022-10-18,1.723971278667262
2022-10-19,1.723971278667262
2022-10-20,1.723971278667262
2022-10-21,1.723971278667262
2022-10-24,1.723971278667262
2022-10-25,1.723971278667262
2022-10-26,1.723971278667262
2022-10-27,1.723971278667262
2022-10-28,1.723971278667262
2022-10-31,1.723971278667262
2022-11-01,1.723971278667262
2022-11-02,1.723971278667262
2022-11-03,1.723971278667262
2022-11-04,1.723971278667262
2022-11-07,1.723971278667262
2022-11-08,1.723971278667262
2022-11-09,1.723971278667262
2022-11-10,1.723971278667262
2022-11-11,1.723971278667262
2022-11-14,1.723971278667262
2022-11-15,1.723971278667262
2022-11-16,1.723971278667262
2022-11-17,1.723971278667262
2022-11-18,1.723971278667262
2022-11-21,1.723971278667262
2022-11-22,1.723971278667262
2022-11-23,1.723971278667262
2022-11-25,1.723971278667262
2022-11-28,1.723971278667262
2022-11-29,1.723971278667262
2022-11-30,1.723971278667262
2022-12-01,1.723971278667262
2022-12-02,1.723971278667262
2022-12-05,1.723971278667262
2022-12-06,1.723971278667262
2022-12-07,1.723971278667262
2022-12-08,1.723971278667262
2022-12-09,1.723971278667262
2022-12-12,1.723971278667262
2022-12-13,1.723971278667262
2022-12-14,1.723971278667262
2022-12-15,1.723971278667262
2022-12-16,1.723971278667262
2022-12-19,1.723971278667262
2022-12-20,1.723971278667262
2022-12-21,1.723971278667262
2022-12-22,1.723971278667262
2022-12-23,1.723971278667262
2022-12-27,1.723971278667262
2022-12-28,1.723971278667262
2022-12-29,1.723971278667262
2022-12-30,1.723971278667262
2023-01-03,1.723971278667262
2023-01-04,1.723971278667262
2023-01-05,1.723971278667262
2023-01-06,1.723971278667262
2023-01-09,1.723971278667262
2023-01-10,1.723971278667262
2023-01-11,1.723971278667262
2023-01-12,1.723971278667262
2023-01-13,1.723971278667262
2023-01-17,1.723971278667262
2023-01-18,1.723971278667262
2023-01-19,1.723971278667262
2023-01-20,1.723971278667262
2023-01-23,1.723971278667262
2023-01-24,1.723971278667262
2023-01-25,1.723971278667262
2023-01-26,1.723971278667262
2023-01-27,1.723971278667262
2023-01-30,1.723971278667262
2023-01-31,1.723971278667262
2023-02-01,1.723971278667262
2023-02-02,1.723971278667262
2023-02-03,1.723971278667262
2023-02-06,1.7335239610635846
2023-02-07,1.8041273203846524
2023-02-08,1.7676058271665203
2023-02-09,1.7476118887168974
2023-02-10,1.6857774462722537
2023-02-13,1.7318448011830458
2023-02-14,1.7810874593853883
2023-02-15,1.7617904017065436
2023-02-16,1.708409220850992
2023-02-17,1.679124624690851
2023-02-21,1.6496934639165153
2023-02-22,1.6474035965792608
2023-02-23,1.6495980940432737
2023-02-24,1.645662472820351
2023-02-27,1.6406912600172374
2023-02-28,1.6486069055466528
2023-03-01,1.635958519837284
2023-03-02,1.6493360391356373
2023-03-03,1.684938493867537
2023-03-06,1.678251013338055
2023-03-07,1.6727563456822183
2023-03-08,1.6894110697717495
2023-03-09,1.6686085595726712
2023-03-10,1.655203070995304
2023-03-13,1.6585359990301833
2023-03-14,1.7089413259798873
2023-03-15,1.7207127557744286
2023-03-16,1.7607131428038452
2023-03-17,1.7416888924167298
2023-03-20,1.749984994180192
2023-03-21,1.7655698139521134
2023-03-22,1.7646510046762443
2023-03-23,1.7879088803523362
2023-03-24,1.7848573373322711
2023-03-27,1.7729757430635826
2023-03-28,1.7657156719352698
2023-03-29,1.7868545853074522
2023-03-30,1.7997450451720731
2023-03-31,1.8163885447724077
2023-04-03,1.8223591116063345
2023-04-04,1.8173746257682923
2023-04-05,1.7996813944303245
2023-04-06,1.813418768869489
2023-04-10,1.8196414418989784
2023-04-11,1.8103517675085736
2023-04-12,1.7989671992602705
2023-04-13,1.8135557004344824
2023-04-14,1.8214142330003091
2023-04-17,1.8193921492332281
2023-04-18,1.8286640125085534
2023-04-19,1.8252431730905763
2023-04-20,1.8108352621418753
2023-04-21,1.8110966436405787
2023-04-24,1.8078712183962908
2023-04-25,1.78266403294441
2023-04-26,1.7865800160399672
2023-04-27,1.8483052210561288
2023-04-28,1.8520308022669525
2023-05-01,1.8551921393541988
2023-05-02,1.8408916789118004
2023-05-03,2.0227292618497636
2023-05-04,2.01529929136297
2023-05-05,2.0137329111459055
2023-05-08,2.0601449173742674
2023-05-09,2.052358895810097
2023-05-10,2.039993346030558
2023-05-11,2.0413228699965096
2023-05-12,2.011506324274076
2023-05-15,2.026276511058432
2023-05-16,2.002361898821019
2023-05-17,2.0205764701309574
2023-05-18,2.0312745446536447
2023-05-19,2.0181040408529314
2023-05-22,2.0541357185023985
2023-05-23,1.989910608482583
2023-05-24,2.0055851424764
2023-05-25,1.9923858183050973
2023-05-26,2.0190379485079863
2023-05-30,2.02887521983294
2023-05-31,1.9752005041054093
2023-06-01,2.0068434973750904
2023-06-02,1.9662043810832537
2023-06-05,2.0331620421490086
2023-06-06,2.0905358479072746
2023-06-07,2.095882700629367
2023-06-08,2.1610932814403743
2023-06-09,2.1938105303904445
2023-06-12,2.1955904230985017
2023-06-13,2.1083664298868907
2023-06-14,2.082511971487815
2023-06-15,2.111900651316831
2023-06-16,2.0969480356308923
2023-06-20,2.0835099111596267
2023-06-21,1.9942167627795064
2023-06-22,2.0360840701067677
2023-06-23,2.040515494939295
2023-06-26,1.99137171860079
2023-06-27,2.0290154067891377
2023-06-28,2.046231464155963
2023-06-29,2.056206041509107
2023-06-30,2.095700802907975
2023-07-03,2.098200789866432
2023-07-05,2.092020342231601
2023-07-06,2.0607724610410854
2023-07-07,2.037294445678283
2023-07-10,2.0067827870543344
2023-07-11,2.0094806142380217
2023-07-12,2.0274299057004628
2023-07-13,2.052309679320445
2023-07-14,2.046218568984803
2023-07-17,2.06825215645383
2023-07-18,2.1368339565376395
2023-07-19,2.065498807444765
2023-07-20,2.0468300740384513
2023-07-21,2.036199042395152
2023-07-24,1.9718326108088091
2023-07-25,2.002841085531174
2023-07-26,2.04035126873917
2023-07-27,2.0245692427813857
2023-07-28,2.1704930768002955
2023-07-31,2.2120576188520436
2023-08-01,2.2130929979947345
2023-08-02,2.2037747831888934
2023-08-03,2.184103040260646
2023-08-04,2.210677179154582
2023-08-07,2.192688212177428
2023-08-08,2.1582352222350343
2023-08-09,2.102216357994997
2023-08-10,2.102216357994997
2023-08-11,2.102216357994997
2023-08-14,2.105384083254195
2023-08-15,2.097782562004406
2023-08-16,2.0967814806863974
2023-08-17,2.081815157028159
2023-08-18,2.074605829978384
2023-08-21,2.0700063040574506
2023-08-22,2.066726134329336
2023-08-23,2.06961177554921
2023-08-24,2.0672867055325375
2023-08-25,2.074033800852095
2023-08-28,2.1024815353223714
2023-08-29,2.117326484988075
2023-08-30,2.164624117806704
2023-08-31,2.170245267624834
2023-09-01,2.1718262473053827
2023-09-05,2.148782552199333
2023-09-06,2.1369268672513844
2023-09-07,2.1441418867247632
2023-09-08,2.1331488296460734
2023-09-11,2.1380408050014705
2023-09-12,2.1193326694502694
2023-09-13,2.0927422125213635
2023-09-14,2.0937437650550246
2023-09-15,2.0882789175022367
2023-09-18,2.0769580275611004
2023-09-19,2.0793069200914456
2023-09-20,2.071778912545471
2023-09-21,2.0585134601624793
2023-09-22,2.0585134601624793
2023-09-25,2.0509116230707254
2023-09-26,2.0568850995821855
2023-09-27,2.0649070729929537
2023-09-28,2.0754712885772384
2023-09-29,2.0782794485183897
2023-10-02,2.080432581330516
2023-10-03,2.0459526043294023
2023-10-04,2.0544739509971772
2023-10-05,2.053781496004711
2023-10-06,2.0583789310485123
2023-10-09,2.09733262568888
2023-10-10,2.108651513686784
2023-10-11,2.1579741812294904
2023-10-12,2.156882805140486
2023-10-13,2.144309569139137
2023-10-16,2.1610657756984635
2023-10-17,2.1532330533761703
2023-10-18,2.155419958436718
2023-10-19,2.130556496413358
2023-10-20,2.080191901812797
2023-10-23,2.0782433591778378
2023-10-24,2.095193808903414
2023-10-25,2.0655660005837997
2023-10-26,2.0497888933357755
2023-10-27,2.0511880797042266
2023-10-30,2.0614508759046384
2023-10-31,2.0690829150114762
2023-11-01,2.078405974765057
2023-11-02,2.0936405506368985
2023-11-03,2.1069958771993624
2023-11-06,2.1033770945125
2023-11-07,2.1223368111895686
2023-11-08,2.122387083846803
2023-11-09,2.11209478077855
2023-11-10,2.1357418645947
2023-11-13,2.1542428167349037
2023-11-14,2.1748856509590464
2023-11-15,2.1707809671758227
2023-11-16,2.148727260524673
2023-11-17,2.15706991782255
2023-11-20,2.1950465109451445
2023-11-21,2.118210957448952
2023-11-22,2.1143224370755167
2023-11-24,2.081240935526556
2023-11-27,2.1081459039773334
2023-11-28,2.1108394976253066
2023-11-29,2.1461227971768126
2023-11-30,2.1387431271747457
2023-12-01,2.153791816215866
2023-12-04,2.1415156136414417
2023-12-05,2.1302388193838713
2023-12-06,2.095948053371452
2023-12-07,2.10224079242026
2023-12-08,2.0915705502255353
2023-12-11,2.118565482555068
2023-12-12,2.124766624204275
2023-12-13,2.163312222054552
2023-12-14,2.1972726297416107
2023-12-15,2.2470895469456833
2023-12-18,2.2519877874483925
2023-12-19,2.237781396686474
2023-12-20,2.2024966538553032
2023-12-21,2.234047775468002
2023-12-22,2.226823221811289
2023-12-26,2.246277985932955
2023-12-27,2.2442619958612466
2023-12-28,2.2361923407375377
2023-12-29,2.2153582290541465
2024-01-02,2.1425692309814366
2024-01-03,2.1241285168873185
2024-01-04,2.1241285168873185
2024-01-05,2.1241285168873185
2024-01-08,2.168166743805527
2024-01-09,2.191472242854257
2024-01-10,2.1860241981177264
2024-01-11,2.182089588942728
2024-01-12,2.17104213282173
2024-01-16,2.2894342093290465
2024-01-17,2.2621647762422077
2024-01-18,2.279288771438198
2024-01-19,2.3075330237712817
2024-01-22,2.244587368054737
2024-01-23,2.239303410864369
2024-01-24,2.250745565637364
2024-01-25,2.224820208102696
2024-01-26,2.2128459221355277
2024-01-29,2.246395424367998
2024-01-30,2.213177356205839
2024-01-31,2.13242926409821
2024-02-01,2.1585446436289657
2024-02-02,2.1745104355908866
2024-02-05,2.170404893196772
2024-02-06,2.1689603547991596
2024-02-07,2.228527842248096
2024-02-08,2.24852307499886
2024-02-09,2.2724716469331963
2024-02-12,2.2358304276294008
2024-02-13,2.2341436061416475
2024-02-14,2.259052419049226
2024-02-15,2.241593564470152
2024-02-16,2.240961073481615
2024-02-20,2.17483963238246
2024-02-21,2.17483963238246
2024-02-22,2.17483963238246
2024-02-23,2.17483963238246
2024-02-26,2.192952703659273
2024-02-27,2.2357393578204885
2024-02-28,2.1796499703905177
2024-02-29,2.225552615228551
2024-03-01,2.300695022589629
2024-03-04,2.284116148599876
2024-03-05,2.2490756451111458
2024-03-06,2.2934980318816676
2024-03-07,2.340430071473916
2024-03-08,2.33072077496681
2024-03-11,2.216403050073643
2024-03-12,2.2367146273619563
2024-03-13,2.2739524473142465
2024-03-14,2.2758331170292605
2024-03-15,2.2747047438974324
2024-03-18,2.369115812798734
2024-03-19,2.3595242107204912
2024-03-20,2.413688273336758
2024-03-21,2.439830113273287
2024-03-22,2.4270413583309307
2024-03-25,2.4650884705564033
2024-03-26,2.4084339661334067
2024-03-27,2.3631755061695854
2024-03-28,2.364402622049198
2024-04-01,2.396253628138923
2024-04-02,2.353832814277829
2024-04-03,2.3548073051161005
2024-04-04,2.2580468811705083
2024-04-05,2.246380270039014
2024-04-08,2.230735919785194
2024-04-09,2.219518957240132
2024-04-10,2.2181993178779784
2024-04-11,2.2321288320488195
2024-04-12,2.2125542281214674
2024-04-15,2.1721322460590544
2024-04-16,2.1708031439091653
2024-04-17,2.1465629936128754
2024-04-18,2.1350204337956877
2024-04-19,2.1350204337956877
2024-04-22,2.1484719344117558
2024-04-23,2.1620606927040873
2024-04-24,2.169107087790508
2024-04-25,2.1350204337956877
2024-04-26,2.1350204337956877
2024-04-29,2.1515280541107984
2024-04-30,2.0787285802537196
2024-05-01,2.026154505918674
2024-05-02,2.0662743641259875
2024-05-03,2.1044836834867278
2024-05-06,2.161445273828652
2024-05-07,2.147207376354503
2024-05-08,2.1002066089727687
2024-05-09,2.2032994299891175
2024-05-10,2.215967756032091
2024-05-13,2.2131222100916075
2024-05-14,2.1436154550513526
2024-05-15,2.1802875732175453
2024-05-16,2.1772522984576708
2024-05-17,2.156194085809434
2024-05-20,2.197930767750969
2024-05-21,2.191913937579585
2024-05-22,2.1766160465990056
2024-05-23,2.2756490116224173
2024-05-24,2.333042710988555
2024-05-28,2.4434339958644067
2024-05-29,2.4444793124199604
2024-05-30,2.3580484078925483
2024-05-31,2.3486118424030122
2024-06-03,2.357915186265292
2024-06-04,2.357778883180858
2024-06-05,2.44852541624829
2024-06-06,2.4274004525983766
2024-06-07,2.407599094056928
2024-06-10,2.3952876030399004
2024-06-11,2.3301040247538993
2024-06-12,2.3744459881412396
2024-06-13,2.420028283410166
2024-06-14,2.4434913136413843
2024-06-17,2.4515167005265965
2024-06-18,2.483247300592474
2024-06-20,2.410742453917907
2024-06-21,2.373260750760962
2024-06-24,2.2878489586765562
2024-06-25,2.3564327921603474
2024-06-26,2.367518255749718
2024-06-27,2.34045460312365
2024-06-28,2.3497580830052387
2024-07-01,2.382563813064957
2024-07-02,2.378923072149033
2024-07-03,2.484782515906915
2024-07-05,2.442468627457817
2024-07-08,2.4960370277200292
2024-07-09,2.5175871665398244
2024-07-10,2.559800004156864
2024-07-11,2.4594931782002343
2024-07-12,2.473394431994951
2024-07-15,2.4754691928036268
2024-07-16,2.4406995185224742
2024-07-17,2.3770538245757735
2024-07-18,2.3770538245757735
2024-07-19,2.3770538245757735
2024-07-22,2.3851632041158632
2024-07-23,2.3798693348884052
2024-07-24,2.2819716715927427
2024-07-25,2.2819716715927427
2024-07-26,2.2819716715927427
2024-07-29,2.269354688220691
2024-07-30,2.2559725427105173
2024-07-31,2.26535334838263
2024-08-01,2.2538116919433535
2024-08-02,2.2361785245699113
2024-08-05,2.2063101159119753
2024-08-06,2.2080302919852564
2024-08-07,2.1907857924133936
2024-08-08,2.202336537087577
2024-08-09,2.1883158607335527
2024-08-12,2.1649370556946974
2024-08-13,2.183201876576291
2024-08-14,2.1942331135672655
2024-08-15,2.1982115760839935
2024-08-16,2.21376384181061
2024-08-19,2.2304412240259204
2024-08-20,2.2228683522758645
2024-08-21,2.245755508498606
2024-08-22,2.207148186912681
2024-08-23,2.232011681860205
2024-08-26,2.1974759320049086
2024-08-27,2.1910418414514874
2024-08-28,2.152584045988886
2024-08-29,2.1751754214818084
2024-08-30,2.195766765504946
2024-09-03,2.1363879764227485
2024-09-04,2.1020759865599796
2024-09-05,2.1020759865599796
2024-09-06,2.1020759865599796
2024-09-09,2.114634155837932
2024-09-10,2.1302653593613843
2024-09-11,2.1679237975118832
2024-09-12,2.17134055276322
2024-09-13,2.157794706243155
2024-09-16,2.1447004948995665
2024-09-17,2.1394119016760014
2024-09-18,2.1251405363617013
2024-09-19,2.136600440319609
2024-09-20,2.121653634828259
2024-09-23,2.1202831848372155
2024-09-24,2.1151667275183956
2024-09-25,2.1188233581113343
2024-09-26,2.113653733854728
2024-09-27,2.113019997261137
2024-09-30,2.138959559678322
2024-10-01,2.139442505880945
2024-10-02,2.1399681083376425
2024-10-03,2.1667867536440775
2024-10-04,2.20920602271185
2024-10-07,2.2087860424680295
2024-10-08,2.2389769996459243
2024-10-09,2.2361642829214237
2024-10-10,2.236545889294808
2024-10-11,2.2544445021315864
2024-10-14,2.2327723515633355
2024-10-15,2.197432520722402
2024-10-16,2.1684115794647822
2024-10-17,2.1530817244402924
2024-10-18,2.1714774998936255
2024-10-21,2.223069570020175
2024-10-22,2.228490684204477
2024-10-23,2.2205848567827626
2024-10-24,2.242495415875881
2024-10-25,2.2718600285141797
2024-10-28,2.2546075158147545
2024-10-29,2.259513687991359
2024-10-30,2.216303453543212
2024-10-31,2.1288184832474086
2024-11-01,2.1369501545238627
2024-11-04,2.1166915145442933
2024-11-05,2.3016261264702966
2024-11-06,2.31265592267268
2024-11-07,2.5399405359932246
2024-11-08,2.5399405359932246
2024-11-11,2.5365312111190033
2024-11-12,2.4648472761338827
2024-11-13,2.4344562923607547
2024-11-14,2.4003116343511706
2024-11-15,2.3613297059994185
2024-11-18,2.3928151689707704
2024-11-19,2.4938132909154893
2024-11-20,2.5169409439107255
2024-11-21,2.5309513027289254
2024-11-22,2.5851838301513705
2024-11-25,2.5268247486539
2024-11-26,2.5796291952614108
2024-11-27,2.5335149608608147
2024-11-29,2.6013412558638294
2024-12-02,2.67328783096327
2024-12-03,2.669052027611766
2024-12-04,2.897646779774375
2024-12-05,2.897646779774375
2024-12-06,2.897646779774375
2024-12-09,2.762444332888096
2024-12-10,2.689607808526427
2024-12-11,2.6928502916350445
2024-12-12,2.6773497260308377
2024-12-13,2.6658350373924247
2024-12-16,2.8048478477816285
2024-12-17,2.8309299979096405
2024-12-18,2.612340172165114
2024-12-19,2.635511681445218
2024-12-20,2.7264407176789645
2024-12-23,2.742753944389587
2024-12-24,2.7584654891859914
2024-12-26,2.774523921258366
2024-12-27,2.676708552744959
2024-12-30,2.646165047192862
2024-12-31,2.5496795591152606
2025-01-02,2.623035842727365
2025-01-03,2.6592848363185517
2025-01-06,2.6336088883274384
2025-01-07,2.4316583612063845
2025-01-08,2.4316583612063845
2025-01-10,2.4316583612063845
2025-01-13,2.463401814094348
2025-01-14,2.46204261390064
2025-01-15,2.4755040107895416
2025-01-16,2.487976409044342
2025-01-17,2.5491379658141233
2025-01-21,2.551749516097826
2025-01-22,2.5611693761724528
2025-01-23,2.564042111754297
2025-01-24,2.5651835041341298
2025-01-27,2.480626494299009
2025-01-28,2.480626494299009
2025-01-29,2.480626494299009
2025-01-30,2.480626494299009
2025-01-31,2.480626494299009
2025-02-03,2.529534671174397
2025-02-04,2.711027062677129
2025-02-05,2.6708756981560717
2025-02-06,2.7023217116942764
2025-02-07,2.693708175418876
2025-02-10,2.7108700949290285
2025-02-11,2.6760549538751164
2025-02-12,2.711816736285008
2025-02-13,2.931833020589572
2025-02-14,2.8948900775604884
2025-02-18,3.0710006551961406
2025-02-19,3.1790000882613985
2025-02-20,3.1673185864544653
2025-02-21,3.1157006015109308
2025-02-24,3.0701739092273477
2025-02-25,3.0105698203015403
2025-02-26,3.0105698203015403
2025-02-27,3.0105698203015403
2025-02-28,3.0105698203015403
2025-03-03,3.0136896915788736
2025-03-04,2.9837725728503
2025-03-05,2.9861837779752984
2025-03-06,2.9901142964960234
2025-03-07,2.9990891638769104
2025-03-10,2.9964032905326192
2025-03-11,2.9964032905326192
2025-03-12,2.9964032905326192
2025-03-13,2.9964032905326192
2025-03-14,2.9964032905326192
2025-03-17,2.9964032905326192
2025-03-18,2.9964032905326192
2025-03-19,2.9964032905326192
2025-03-20,2.9964032905326192
2025-03-21,2.9964032905326192
2025-03-24,2.9964032905326192
2025-03-25,2.9964032905326192
2025-03-26,2.9964032905326192
2025-03-27,2.9964032905326192
2025-03-28,2.9964032905326192
2025-03-31,2.9964032905326192
2025-04-01,2.9964032905326192
2025-04-02,2.9964032905326192
2025-04-03,2.9964032905326192
2025-04-04,2.9964032905326192
2025-04-07,2.9964032905326192
2025-04-08,2.9964032905326192
2025-04-09,2.9964032905326192
2025-04-10,2.9964032905326192
2025-04-11,2.9964032905326192
2025-04-14,2.9964032905326192
2025-04-15,2.9964032905326192
2025-04-16,2.9964032905326192
2025-04-17,2.9964032905326192
2025-04-21,2.9964032905326192
2025-04-22,2.9964032905326192
2025-04-23,2.9964032905326192
2025-04-24,2.9964032905326192
2025-04-25,2.9964032905326192
2025-04-28,2.9964032905326192
2025-04-29,2.9964032905326192
2025-04-30,2.9964032905326192
2025-05-01,2.9964032905326192
2025-05-02,2.9964032905326192
2025-05-05,2.9964032905326192
2025-05-06,2.9964032905326192
2025-05-07,2.9964032905326192
2025-05-08,2.9964032905326192
2025-05-09,2.9964032905326192
2025-05-12,2.9964032905326192
2025-05-13,2.9964032905326192
2025-05-14,2.9964032905326192
2025-05-15,2.9964032905326192
2025-05-16,2.9964032905326192
2025-05-19,3.018033210668178
2025-05-20,3.0096439063228155
2025-05-21,2.962703658061613
2025-05-22,2.985596919992461
2025-05-23,2.9407158677630174
2025-05-27,2.9692256114189544
2025-05-28,2.9710750510948425
2025-05-29,2.95073861693325
2025-05-30,3.0747400757625147
2025-06-02,3.095408654548465
2025-06-03,3.114116107563783
2025-06-04,3.059686202939001
2025-06-05,2.9428824473179023
2025-06-06,2.95215037435558
2025-06-09,2.941919071336594
2025-06-10,2.950964086194311
2025-06-11,2.9933346407103407
2025-06-12,2.9284595549600745
2025-06-13,2.9550081892963336
2025-06-16,2.990332074446024
2025-06-17,2.933904746371268
2025-06-18,2.9715059111237676
2025-06-20,2.904677023994047
2025-06-23,2.947592162374028
2025-06-24,3.037708813210457
2025-06-25,3.0059062180828655
2025-06-26,3.0349723198259877
2025-06-27,2.8918729649094304
2025-06-30,2.979086977366919
2025-07-01,2.948810198284971
2025-07-02,3.0260395826159314
2025-07-03,3.097487109301543
2025-07-07,3.0698459342374833
2025-07-08,3.0688666140499286
2025-07-09,3.096688200391246
2025-07-10,3.046417122810071
2025-07-11,3.019194112328842
2025-07-14,3.023284438926206
2025-07-15,3.155381204766506
2025-07-16,3.2406570892287325
2025-07-17,3.289761013476462
2025-07-18,3.234024418163032
2025-07-21,3.222417361145572
2025-07-22,3.165455523056141
2025-07-23,3.229490835192478
2025-07-24,3.271215357844885
2025-07-25,3.33041385865517
2025-07-28,3.420934150987452
2025-07-29,3.474092669924949
2025-07-30,3.4993829534459495
2025-07-31,3.4855997206447276
2025-08-01,3.4351370454400523
2025-08-04,3.4585496626590375
2025-08-05,3.405607385586328
2025-08-06,3.1700665977713323
2025-08-07,3.1700665977713323
2025-08-08,3.1700665977713323
2025-08-11,3.1567238642343227
2025-08-12,3.200537513057666
2025-08-13,3.2971183999681584
2025-08-14,3.2035814609189384
2025-08-15,3.142076224345826
2025-08-18,3.1465486716575435
2025-08-19,3.049103344463256
2025-08-20,3.043263933860479
2025-08-21,3.043263933860479
2025-08-22,3.043263933860479
2025-08-25,3.0767577670517334
2025-08-26,3.144669810890653
2025-08-27,3.1122081542528903
2025-08-28,3.2019632819844164
2025-08-29,3.1813200637103582
2025-09-02,3.167955194662527
2025-09-03,3.200134255344106
2025-09-04,3.2970452551383973
2025-09-05,3.281473648952117
2025-09-08,3.47128203203797
2025-09-09,3.479691951487893
2025-09-10,3.49721672727465
2025-09-11,3.5422917718697593
2025-09-12,3.561397439703007
2025-09-15,3.6486532259371347
2025-09-16,3.678141686554838
2025-09-17,3.695160563264589
2025-09-18,3.7923535807620983
2025-09-19,3.9022256492911955
2025-09-22,3.9224766282981305
2025-09-23,3.8713958315348416
2025-09-24,3.8273940916031757
2025-09-25,3.7834794189260923
2025-09-26,3.7834794189260923
2025-09-29,3.7764339121481134
2025-09-30,3.731897311744717
2025-10-01,3.9256251428089124
2025-10-02,3.900278230696706
2025-10-03,3.8482540628757964
2025-10-06,3.9348081345776595
2025-10-07,3.8807651938622514
2025-10-08,3.9188546521612535
2025-10-09,3.925720533089942
2025-10-10,3.753480745528613
2025-10-13,3.8954684802829886
2025-10-14,3.7395373810162944
2025-10-15,3.7646981517085756
2025-10-16,3.737451336297302
2025-10-17,3.7824086142066693
2025-10-20,3.7907754502144373
2025-10-21,3.7295940544955055
2025-10-22,3.628888262215985
2025-10-23,3.6715040666621186
2025-10-24,3.606537337633422
2025-10-27,3.6983662147515224
2025-10-28,3.7216484427554173
2025-10-29,3.768869941326085
2025-10-30,3.612950736759509
2025-10-31,3.691762271047139
2025-11-03,3.766133739336827
2025-11-04,3.5983522311123686
2025-11-05,3.6412136523523104
2025-11-06,3.510988423084968
2025-11-07,3.510988423084968
2025-11-10,3.5998665434669315
2025-11-11,3.501629934520917
2025-11-12,3.4992777849055487
2025-11-13,3.3741889463488004
2025-11-14,3.4512394302188283
2025-11-17,3.327999684111524
2025-11-18,3.2301093492381705
2025-11-19,3.2301093492381705
2025-11-20,3.2301093492381705
2025-11-21,3.2301093492381705
2025-11-24,3.2519988270678812
2025-11-25,3.2921350148979407
2025-11-26,3.280193799956202
2025-11-28,3.276088463603573
2025-12-01,3.2303573758157995
2025-12-02,3.224117164909795
2025-12-03,3.214531225868723
2025-12-04,3.208388783477343
2025-12-05,3.2131385440456603
2025-12-08,3.187884810249005
2025-12-09,3.1966111988617154
2025-12-10,3.204740345956786
2025-12-11,3.184534388444474
2025-12-12,3.176379384678121
2025-12-15,3.1670783312107864
2025-12-16,3.155455773311391
2025-12-17,3.110484595369521
2025-12-18,3.1262762871231313
2025-12-19,3.135062868077233
2025-12-22,3.1397265880735823
2025-12-23,3.141589242312505
2025-12-24,3.202491704780223
2025-12-26,3.1951177948634806
2025-12-29,3.253785492265245
2025-12-30,3.2345794453809606
2025-12-31,3.1844769411635108
2026-01-02,3.3911999367813888
2026-01-05,3.4192336294451744
2026-01-06,3.494448845120388
2026-01-07,3.4829447125891204
2026-01-08,3.4510593584041853
2026-01-09,3.510059336015144
2026-01-12,3.5631296244253443
2026-01-13,3.507064677871382
2026-01-14,3.452651287893434
2026-01-15,3.5750753959752544
2026-01-16,3.643622679432144
2026-01-20,3.6126434445039783
2026-01-21,3.6823935820634737
2026-01-22,3.6004415249412878
2026-01-23,3.5485508056980675
2026-01-26,3.5513130600757563
2026-01-27,3.772512713787563
2026-01-28,3.893920908601431
2026-01-29,3.965808909110378
2026-01-30,3.752816242777365
2026-02-02,3.888372796943557
2026-02-03,3.7460488986363147
2026-02-04,3.599843929724477
2026-02-05,3.599843929724477
2026-02-06,3.599843929724477
2026-02-09,3.596358959195191
2026-02-10,3.580872612429724
2026-02-11,3.6914947214174014
2026-02-12,3.6855960506474297
2026-02-13,3.6929882823013296
2026-02-17,3.6629919281564103
2026-02-18,3.7033985906697855
2026-02-19,3.673452637561774
2026-02-20,3.705864706106169
2026-02-23,3.6893724871868865
2026-02-24,3.6558959610917845
2026-02-25,3.6841136513535577
2026-02-26,3.6471755591635846
2026-02-27,3.622551062580081
2026-03-02,3.636996757361212
2026-03-03,3.5230580082590093
2026-03-04,3.5388548967051237
2026-03-05,3.4885540364814966
2026-03-06,3.4885540364814966
2026-03-09,3.5500452870516854
2026-03-10,3.546697027699662
2026-03-11,3.571199957604
2026-03-12,3.473315483221236
2026-03-13,3.455029489333591
2026-03-16,3.430606909998592
2026-03-17,3.4691294134024955
2026-03-18,3.4692069335825813
2026-03-19,3.4353907506770542
2026-03-20,3.3940018336577205
2026-03-23,3.4002963436367253
2026-03-24,3.4002963436367253
2026-03-25,3.4002963436367253
2026-03-26,3.4002963436367253
2026-03-27,3.4002963436367253
2026-03-30,3.4002963436367253
2026-03-31,3.4002963436367253
2026-04-01,3.4002963436367253
2026-04-02,3.4002963436367253
2026-04-06,3.4002963436367253
2026-04-07,3.4002963436367253
2026-04-08,3.4002963436367253
2026-04-09,3.4002963436367253
2026-04-10,3.4002963436367253
2026-04-13,3.4997212964656668
2026-04-14,3.4953574077488243
2026-04-15,3.5363267963312826
2026-04-16,3.617575669802644
2026-04-17,3.7002482003653165
2026-04-20,3.7303002330400084
2026-04-21,3.7910034670553836
2026-04-22,3.8425518042275693
2026-04-23,3.9916268149375034
2026-04-24,4.343844310013603
2026-04-27,4.33078883235636
2026-04-28,4.2310216249332795
2026-04-29,4.3103145134029095
2026-04-30,4.3103145134029095
2026-05-01,4.3103145134029095
2026-05-04,4.174340770796926
2026-05-05,4.322695994372998
2026-05-06,4.762526235632995
2026-05-07,4.527079254200821
2026-05-08,4.726629143630597
2026-05-11,4.710336393265466
2026-05-12,4.467605959010333
2026-05-13,4.64277431333724
2026-05-14,4.703073980241908
2026-05-15,4.628969252366303
2026-05-18,4.481339404196562
2026-05-19,4.341393645168338
2026-05-20,4.341393645168338
