Date,Value
2018-01-02,1.0
2018-01-03,1.0
2018-01-04,1.0
2018-01-05,1.0
2018-01-08,1.0243276923826679
2018-01-09,1.022997488831695
2018-01-10,1.0227144537262602
2018-01-11,1.0309464361703433
2018-01-12,1.041074869854905
2018-01-16,1.0380035726052617
2018-01-17,1.0676602262644277
2018-01-18,1.0571725143340118
2018-01-19,1.0643338022204918
2018-01-22,1.0869617443064148
2018-01-23,1.0938498536250458
2018-01-24,1.0611631263597683
2018-01-25,1.0679594074786394
2018-01-26,1.101178943193284
2018-01-29,1.133671267576619
2018-01-30,1.1167630444762953
2018-01-31,1.101777933104929
2018-02-01,1.0791644289715236
2018-02-02,1.0678317305569232
2018-02-05,1.0341163624210084
2018-02-06,1.0341163624210084
2018-02-07,1.0341163624210084
2018-02-08,1.0341163624210084
2018-02-09,1.0341163624210084
2018-02-12,1.0498024859259163
2018-02-13,1.0461887088646837
2018-02-14,1.0782271899500013
2018-02-15,1.0936765266985136
2018-02-16,1.0910015404271307
2018-02-20,1.1020402249879937
2018-02-21,1.083877452203378
2018-02-22,1.0835878020158662
2018-02-23,1.0974880310147412
2018-02-26,1.1043959485809336
2018-02-27,1.103670477464248
2018-02-28,1.1056132034652917
2018-03-01,1.1017465366226653
2018-03-02,1.1124669751192378
2018-03-05,1.1320961999908254
2018-03-06,1.147229946643523
2018-03-07,1.1476170311569238
2018-03-08,1.1511724903906089
2018-03-09,1.1696477081408718
2018-03-12,1.1571330344859836
2018-03-13,1.1456418789616902
2018-03-14,1.153405532489959
2018-03-15,1.1553661327194686
2018-03-16,1.152260834360124
2018-03-19,1.14381010563347
2018-03-20,1.1636366124328057
2018-03-21,1.1548118304907995
2018-03-22,1.1365018580665815
2018-03-23,1.1221365485196482
2018-03-26,1.1203634353837613
2018-03-27,1.108128755733509
2018-03-28,1.1023425322769898
2018-03-29,1.1023425322769898
2018-04-02,1.0878498887794361
2018-04-03,1.098752733805981
2018-04-04,1.1074900950546696
2018-04-05,1.120533970776345
2018-04-06,1.1081366692701538
2018-04-09,1.1031228147778034
2018-04-10,1.1106085477444174
2018-04-11,1.1099624436355704
2018-04-12,1.123944020126866
2018-04-13,1.114611684422287
2018-04-16,1.1200021320069733
2018-04-17,1.1304903788180884
2018-04-18,1.1317365657498712
2018-04-19,1.1236365478043635
2018-04-20,1.1200343490536744
2018-04-23,1.1180480603151255
2018-04-24,1.1183828272855156
2018-04-25,1.1169070278375668
2018-04-26,1.1306497499133754
2018-04-27,1.1270448004596376
2018-04-30,1.1211880024800291
2018-05-01,1.132770420906098
2018-05-02,1.131267932893223
2018-05-03,1.1261004159357013
2018-05-04,1.133361092516017
2018-05-07,1.1411800886487944
2018-05-08,1.147780995319173
2018-05-09,1.158954194608657
2018-05-10,1.1612834651160326
2018-05-11,1.1541388829211994
2018-05-14,1.1519877977824569
2018-05-15,1.1500098800081868
2018-05-16,1.1501035078857231
2018-05-17,1.1513826834621073
2018-05-18,1.1470073557988283
2018-05-21,1.1589847623300389
2018-05-22,1.1560524730631505
2018-05-23,1.1642471781000565
2018-05-24,1.1650423149553437
2018-05-25,1.1689567623779027
2018-05-29,1.166108119340532
2018-05-30,1.1708256209080887
2018-05-31,1.1658322043833054
2018-06-01,1.1775977998807075
2018-06-04,1.17457269149252
2018-06-05,1.1664862452848783
2018-06-06,1.1678197742999044
2018-06-07,1.1551487359711223
2018-06-08,1.150698036784807
2018-06-11,1.167503158657081
2018-06-12,1.1736458243769536
2018-06-13,1.1925297807869266
2018-06-14,1.1926197791586497
2018-06-15,1.1937144816811993
2018-06-18,1.2170966069526972
2018-06-19,1.2012277632629245
2018-06-20,1.1948046581488434
2018-06-21,1.161933456196719
2018-06-22,1.167600920961714
2018-06-25,1.110593206155555
2018-06-26,1.1212919896998172
2018-06-27,1.1148339762554431
2018-06-28,1.1184432855677713
2018-06-29,1.1155802381415783
2018-07-02,1.1011342760930838
2018-07-03,1.0832263738934742
2018-07-05,1.0888735806280507
2018-07-06,1.0959487115658377
2018-07-09,1.099690672693157
2018-07-10,1.0953188359271957
2018-07-11,1.0882685627105757
2018-07-12,1.0941196253391654
2018-07-13,1.0718723435295225
2018-07-16,1.0854354197392926
2018-07-17,1.0764510351399459
2018-07-18,1.0757926375553324
2018-07-19,1.0711839172512874
2018-07-20,1.0642709309775942
2018-07-23,1.0548862828843744
2018-07-24,1.025069268920854
2018-07-25,1.0371754986716548
2018-07-26,1.1111330195848885
2018-07-27,1.117785573332105
2018-07-30,1.117805795250881
2018-07-31,1.0814499626166403
2018-08-01,1.0908906976809147
2018-08-02,1.0894267284552988
2018-08-03,1.079550953050845
2018-08-06,1.105774219841663
2018-08-07,1.1116910110342744
2018-08-08,1.086677414091177
2018-08-09,1.0708762487899504
2018-08-10,1.0695594536207234
2018-08-13,1.0860021531356405
2018-08-14,1.1040723747780032
2018-08-15,1.0897961687780455
2018-08-16,1.0803186805478269
2018-08-17,1.0995153763777181
2018-08-20,1.1081608114730421
2018-08-21,1.1219175340521728
2018-08-22,1.1484945917119207
2018-08-23,1.2067258718943659
2018-08-24,1.276080167171146
2018-08-27,1.3223052246040474
2018-08-28,1.3225991689845067
2018-08-29,1.3278835989932414
2018-08-30,1.305759368444437
2018-08-31,1.327242460658562
2018-09-04,1.4340900849991494
2018-09-05,1.4377467420707906
2018-09-06,1.4614968763657683
2018-09-07,1.4552934881249384
2018-09-10,1.5612046177387775
2018-09-11,1.5783044214609907
2018-09-12,1.6281524536636724
2018-09-13,1.5660742945693151
2018-09-14,1.64528773617231
2018-09-17,1.632899970985162
2018-09-18,1.6301613731593592
2018-09-19,1.6025788939772618
2018-09-20,1.5959089303684473
2018-09-21,1.5845436744491486
2018-09-24,1.6434683738233211
2018-09-25,1.654348033162016
2018-09-26,1.6372650399405837
2018-09-27,1.629781980133294
2018-09-28,1.5819966017590414
2018-10-01,1.5808025947826072
2018-10-02,1.4744482497796678
2018-10-03,1.4406995304937245
2018-10-04,1.4406995304937245
2018-10-05,1.4406995304937245
2018-10-08,1.4402216421601461
2018-10-09,1.4450209245968697
2018-10-10,1.418122013172818
2018-10-11,1.418122013172818
2018-10-12,1.418122013172818
2018-10-15,1.420511971882834
2018-10-16,1.4271787473445556
2018-10-17,1.4352919406544473
2018-10-18,1.432398877627744
2018-10-19,1.432524648150838
2018-10-22,1.43329736837195
2018-10-23,1.435162477036683
2018-10-24,1.429561501887354
2018-10-25,1.4411891239951207
2018-10-26,1.4347076415189532
2018-10-29,1.440643683762349
2018-10-30,1.440643683762349
2018-10-31,1.440643683762349
2018-11-01,1.440643683762349
2018-11-02,1.440643683762349
2018-11-05,1.440643683762349
2018-11-06,1.440643683762349
2018-11-07,1.440643683762349
2018-11-08,1.440643683762349
2018-11-09,1.440643683762349
2018-11-12,1.440643683762349
2018-11-13,1.440643683762349
2018-11-14,1.440643683762349
2018-11-15,1.440643683762349
2018-11-16,1.440643683762349
2018-11-19,1.440643683762349
2018-11-20,1.440643683762349
2018-11-21,1.440643683762349
2018-11-23,1.440643683762349
2018-11-26,1.440643683762349
2018-11-27,1.440643683762349
2018-11-28,1.440643683762349
2018-11-29,1.440643683762349
2018-11-30,1.440643683762349
2018-12-03,1.440643683762349
2018-12-04,1.440643683762349
2018-12-06,1.440643683762349
2018-12-07,1.440643683762349
2018-12-10,1.440643683762349
2018-12-11,1.440643683762349
2018-12-12,1.440643683762349
2018-12-13,1.440643683762349
2018-12-14,1.440643683762349
2018-12-17,1.440643683762349
2018-12-18,1.440643683762349
2018-12-19,1.440643683762349
2018-12-20,1.440643683762349
2018-12-21,1.440643683762349
2018-12-24,1.440643683762349
2018-12-26,1.440643683762349
2018-12-27,1.440643683762349
2018-12-28,1.440643683762349
2018-12-31,1.440643683762349
2019-01-02,1.440643683762349
2019-01-03,1.440643683762349
2019-01-04,1.440643683762349
2019-01-07,1.440643683762349
2019-01-08,1.440643683762349
2019-01-09,1.440643683762349
2019-01-10,1.440643683762349
2019-01-11,1.440643683762349
2019-01-14,1.440643683762349
2019-01-15,1.440643683762349
2019-01-16,1.440643683762349
2019-01-17,1.440643683762349
2019-01-18,1.440643683762349
2019-01-22,1.440643683762349
2019-01-23,1.440643683762349
2019-01-24,1.440643683762349
2019-01-25,1.440643683762349
2019-01-28,1.440643683762349
2019-01-29,1.440643683762349
2019-01-30,1.440643683762349
2019-01-31,1.440643683762349
2019-02-01,1.440643683762349
2019-02-04,1.440643683762349
2019-02-05,1.440643683762349
2019-02-06,1.440643683762349
2019-02-07,1.440643683762349
2019-02-08,1.440643683762349
2019-02-11,1.440643683762349
2019-02-12,1.440643683762349
2019-02-13,1.440643683762349
2019-02-14,1.440643683762349
2019-02-15,1.440643683762349
2019-02-19,1.4354093129968097
2019-02-20,1.4463455699253438
2019-02-21,1.451647085897535
2019-02-22,1.4754805250860255
2019-02-25,1.4892615260869029
2019-02-26,1.4107164301811954
2019-02-27,1.4053021595987039
2019-02-28,1.400883047787787
2019-03-01,1.4035104069905424
2019-03-04,1.3777799751443554
2019-03-05,1.3551667155295073
2019-03-06,1.3535798680188798
2019-03-07,1.3640877169444394
2019-03-08,1.3797917645801432
2019-03-11,1.4121236040396616
2019-03-12,1.415703217384127
2019-03-13,1.4289823869713127
2019-03-14,1.4536931496721688
2019-03-15,1.4565799218390658
2019-03-18,1.4867373867803555
2019-03-19,1.498024875984933
2019-03-20,1.5187436060339645
2019-03-21,1.6029304334335996
2019-03-22,1.5481095250051025
2019-03-25,1.559891214859879
2019-03-26,1.5933687498080897
2019-03-27,1.557392841483086
2019-03-28,1.5724555095406327
2019-03-29,1.5753913349520374
2019-04-01,1.5779817826376301
2019-04-02,1.5632249661578395
2019-04-03,1.5550250346791143
2019-04-04,1.4389260677427045
2019-04-05,1.4168558494532015
2019-04-08,1.397186112941351
2019-04-09,1.3654287586363347
2019-04-10,1.3799534335107613
2019-04-11,1.3789687344618762
2019-04-12,1.3804458065128409
2019-04-15,1.3768629103647494
2019-04-16,1.3595377114775715
2019-04-17,1.3199882009764217
2019-04-18,1.301870036673314
2019-04-22,1.3308112253961786
2019-04-23,1.3625585513187761
2019-04-24,1.3754763521714288
2019-04-25,1.3421030067210034
2019-04-26,1.3597210660627628
2019-04-29,1.359784773852025
2019-04-30,1.3496027510868083
2019-05-01,1.3312814886600788
2019-05-02,1.3737006911941418
2019-05-03,1.388687433112144
2019-05-06,1.3609098626534535
2019-05-07,1.3184953974103522
2019-05-08,1.3239514481073906
2019-05-09,1.3209988903666197
2019-05-10,1.355473022164547
2019-05-13,1.29797451687601
2019-05-14,1.3153836256819427
2019-05-15,1.3163941728831796
2019-05-16,1.2895806797104012
2019-05-17,1.2773007878117701
2019-05-20,1.2699919171986365
2019-05-21,1.2743746056973637
2019-05-22,1.280871621425789
2019-05-23,1.2621037335444358
2019-05-24,1.2683815966843859
2019-05-28,1.2781380063981487
2019-05-29,1.2538927125882422
2019-05-30,1.2666320924982497
2019-05-31,1.2447407988588113
2019-06-03,1.2440076118156613
2019-06-04,1.2440076118156613
2019-06-05,1.2440076118156613
2019-06-06,1.2440076118156613
2019-06-07,1.2440076118156613
2019-06-10,1.2394816317472284
2019-06-11,1.2057531822760192
2019-06-12,1.2245336432370537
2019-06-13,1.2205067639695693
2019-06-14,1.2121024505338034
2019-06-17,1.2110277109328245
2019-06-18,1.2127469955618664
2019-06-19,1.286262399544453
2019-06-20,1.2872793810093168
2019-06-21,1.2709719434810873
2019-06-24,1.2242509346123063
2019-06-25,1.1753283008549404
2019-06-26,1.156235646846951
2019-06-27,1.156235646846951
2019-06-28,1.156235646846951
2019-07-01,1.1381626237876739
2019-07-02,1.152528038211464
2019-07-03,1.154185293713325
2019-07-05,1.1605533971700075
2019-07-08,1.1840116082612802
2019-07-09,1.2060335037760543
2019-07-10,1.212108306934426
2019-07-11,1.1913207406890867
2019-07-12,1.1847192275033671
2019-07-15,1.2324051350054346
2019-07-16,1.2101645799042888
2019-07-17,1.2204739378686922
2019-07-18,1.2204843229913216
2019-07-19,1.2094189943217084
2019-07-22,1.2254184306504419
2019-07-23,1.227652995274196
2019-07-24,1.2377103447167062
2019-07-25,1.2367712031507851
2019-07-26,1.2491309132035093
2019-07-29,1.207782149087512
2019-07-30,1.20473962687652
2019-07-31,1.1680737779147834
2019-08-01,1.2121163857874977
2019-08-02,1.194881540406262
2019-08-05,1.1721625855938491
2019-08-06,1.198328742723114
2019-08-07,1.215254296011361
2019-08-08,1.249400179684668
2019-08-09,1.2722352284354193
2019-08-12,1.2619195617662773
2019-08-13,1.2719033125512098
2019-08-14,1.2358544422694353
2019-08-15,1.2344933139775758
2019-08-16,1.2519128124078187
2019-08-19,1.2581329036238864
2019-08-20,1.2795748504411326
2019-08-21,1.3095391658083069
2019-08-22,1.3076463666320768
2019-08-23,1.2912836679459447
2019-08-26,1.3215774754817486
2019-08-27,1.3409771736608915
2019-08-28,1.3211609194723257
2019-08-29,1.3173136264718535
2019-08-30,1.3019610333201113
2019-09-03,1.2998355309189997
2019-09-04,1.3026349488487452
2019-09-05,1.312611116671297
2019-09-06,1.2901235762652807
2019-09-09,1.247823175770081
2019-09-10,1.2439172230430697
2019-09-11,1.2439172230430697
2019-09-12,1.2439172230430697
2019-09-13,1.2439172230430697
2019-09-16,1.261862477972712
2019-09-17,1.2764223802092598
2019-09-18,1.2943954327191902
2019-09-19,1.2829299758084263
2019-09-20,1.2674510521673616
2019-09-23,1.2816724331729628
2019-09-24,1.2634695542674468
2019-09-25,1.2926245631349393
2019-09-26,1.2873858571704797
2019-09-27,1.2465706945740131
2019-09-30,1.2525044473028377
2019-10-01,1.2466744049399412
2019-10-02,1.2298755592881863
2019-10-03,1.2392904858302805
2019-10-04,1.2623848410108391
2019-10-07,1.2605957869411704
2019-10-08,1.2272512751818883
2019-10-09,1.2470173541743814
2019-10-10,1.24871067676965
2019-10-11,1.2638629112474002
2019-10-14,1.2576598180423768
2019-10-15,1.2803969323578124
2019-10-16,1.2582667354513055
2019-10-17,1.2679088181279838
2019-10-18,1.2570328799286563
2019-10-21,1.2815315684751378
2019-10-22,1.2717662864636665
2019-10-23,1.252269836632767
2019-10-24,1.338287021516356
2019-10-25,1.3493608173554925
2019-10-28,1.3848399929714246
2019-10-29,1.359547282960114
2019-10-30,1.372208698997892
2019-10-31,1.3469451643840222
2019-11-01,1.370903657248265
2019-11-04,1.377375129137559
2019-11-05,1.3686419866815132
2019-11-06,1.3675788761406165
2019-11-07,1.3632904580249443
2019-11-08,1.370792987121432
2019-11-11,1.3697799888486966
2019-11-12,1.3680371761356822
2019-11-13,1.3794410089149785
2019-11-14,1.384065747055463
2019-11-15,1.4046211202872918
2019-11-18,1.3996743929781066
2019-11-19,1.387346954117929
2019-11-20,1.3740204502624422
2019-11-21,1.334563777169027
2019-11-22,1.3329544413568888
2019-11-25,1.3224012394366156
2019-11-26,1.2945405696464416
2019-11-27,1.306214610222633
2019-11-29,1.2992145905756145
2019-12-02,1.3016706363206987
2019-12-03,1.3071134522063534
2019-12-04,1.3143069643513994
2019-12-05,1.3079771271256102
2019-12-06,1.3188305879324522
2019-12-09,1.3140652236838402
2019-12-10,1.3406911403748327
2019-12-11,1.3486688705454628
2019-12-12,1.4148228541016667
2019-12-13,1.3880290618457762
2019-12-16,1.4530088457988786
2019-12-17,1.4552370806291752
2019-12-18,1.474715343088711
2019-12-19,1.5047370890550549
2019-12-20,1.5300094419536965
2019-12-23,1.578495501900155
2019-12-24,1.6083900819292327
2019-12-26,1.6209223980386076
2019-12-27,1.6122456198961057
2019-12-30,1.5707588582611223
2019-12-31,1.5835219368911062
2020-01-02,1.66128202565492
2020-01-03,1.677524939982833
2020-01-06,1.6904926042678186
2020-01-07,1.7220426898622838
2020-01-08,1.759630572014039
2020-01-09,1.7579607260915644
2020-01-10,1.7382877639446264
2020-01-13,1.838487425044815
2020-01-14,1.8546554407858942
2020-01-15,1.8228022227833556
2020-01-16,1.8336895975537115
2020-01-17,1.847474551331159
2020-01-21,1.9205370154937373
2020-01-22,1.9702295472982518
2020-01-23,1.9800639558338915
2020-01-24,1.9428318916134248
2020-01-27,1.8908620373735072
2020-01-28,1.9080504330468528
2020-01-29,1.9353235499494699
2020-01-30,2.051113210796444
2020-01-31,2.0700049510177947
2020-02-03,2.322507736894948
2020-02-04,2.5575606663664896
2020-02-05,2.3730889880950126
2020-02-06,2.368621920283153
2020-02-07,2.3785083452288216
2020-02-10,2.4370781157436854
2020-02-11,2.4405251106872696
2020-02-12,2.498320780783811
2020-02-13,2.529906123461865
2020-02-14,2.531106771063164
2020-02-18,2.575348216771892
2020-02-19,2.613513048470816
2020-02-20,2.561021208430865
2020-02-21,2.42526276196445
2020-02-24,2.4327685813433675
2020-02-25,2.3774657377516295
2020-02-26,2.3681476522995064
2020-02-27,2.297622001789569
2020-02-28,2.297622001789569
2020-03-02,2.3221402862505984
2020-03-03,2.296145438049994
2020-03-04,2.3759861721561712
2020-03-05,2.345857153899395
2020-03-06,2.3388980464171185
2020-03-09,2.249188790219126
2020-03-10,2.249188790219126
2020-03-11,2.249188790219126
2020-03-12,2.249188790219126
2020-03-13,2.249188790219126
2020-03-16,2.249188790219126
2020-03-17,2.249188790219126
2020-03-18,2.249188790219126
2020-03-19,2.249188790219126
2020-03-20,2.249188790219126
2020-03-23,2.249188790219126
2020-03-24,2.249188790219126
2020-03-25,2.249188790219126
2020-03-26,2.249188790219126
2020-03-27,2.249188790219126
2020-03-30,2.249188790219126
2020-03-31,2.249188790219126
2020-04-01,2.249188790219126
2020-04-02,2.249188790219126
2020-04-03,2.249188790219126
2020-04-06,2.249188790219126
2020-04-07,2.249188790219126
2020-04-08,2.249188790219126
2020-04-09,2.249188790219126
2020-04-13,2.231791652785682
2020-04-14,2.348620156937133
2020-04-15,2.427792642257034
2020-04-16,2.466601014807857
2020-04-17,2.449974812083021
2020-04-20,2.5656206625542763
2020-04-21,2.4262182682795888
2020-04-22,2.495391886427142
2020-04-23,2.499907832728483
2020-04-24,2.581958527640448
2020-04-27,2.6651618669320625
2020-04-28,2.5319961688629755
2020-04-29,2.513933790241084
2020-04-30,2.4904289492659086
2020-05-01,2.516441737675713
2020-05-04,2.637444720280104
2020-05-05,2.639541322057452
2020-05-06,2.6790379668581314
2020-05-07,2.779287524814043
2020-05-08,2.7876394863281093
2020-05-11,2.8301795434936023
2020-05-12,2.8196680945218864
2020-05-13,2.8051477278000636
2020-05-14,2.8242815133338555
2020-05-15,2.8378096164450333
2020-05-18,2.7723162981257197
2020-05-19,2.844944540254217
2020-05-20,2.923842886894648
2020-05-21,2.8915449620251463
2020-05-22,2.9459716358505217
2020-05-26,2.882944450221601
2020-05-27,2.821612283377164
2020-05-28,2.873203316177177
2020-05-29,3.425944321242695
2020-06-01,3.7711489229109123
2020-06-02,3.653991897380965
2020-06-03,3.7892064934185
2020-06-04,3.6714996915733153
2020-06-05,3.56604272502965
2020-06-08,3.655388881139029
2020-06-09,3.640656538862281
2020-06-10,3.74245201183861
2020-06-11,3.646772865536996
2020-06-12,3.6058554659838196
2020-06-15,3.756270198011759
2020-06-16,3.765394143918084
2020-06-17,3.7790364296412546
2020-06-18,3.956353269622028
2020-06-19,3.8673674615872486
2020-06-22,3.9630881406613554
2020-06-23,3.959790147707398
2020-06-24,3.9127216502510693
2020-06-25,4.010550967130737
2020-06-26,3.7778129230457367
2020-06-29,3.7537169541731776
2020-06-30,3.8683889067106776
2020-07-01,3.955278866790575
2020-07-02,4.016201945957304
2020-07-06,4.07942970279065
2020-07-07,4.063496423810747
2020-07-08,4.344292649056061
2020-07-09,4.51596919200501
2020-07-10,4.466531035042225
2020-07-13,4.1660688459128625
2020-07-14,4.096472792060296
2020-07-15,4.050968904422214
2020-07-16,4.003708273466073
2020-07-17,4.059226375455764
2020-07-20,4.346106748424727
2020-07-21,4.213088470350869
2020-07-22,4.237463535981233
2020-07-23,4.106961067288125
2020-07-24,3.912337805001325
2020-07-27,4.096978637819715
2020-07-28,4.010358179215671
2020-07-29,4.083823049375787
2020-07-30,4.110219372516151
2020-07-31,4.049933142200472
2020-08-03,4.164943720901917
2020-08-04,4.165834776385108
2020-08-05,4.199228054550554
2020-08-06,4.165334439795049
2020-08-07,4.006789700417155
2020-08-10,3.844697471428103
2020-08-11,3.790085593905468
2020-08-12,4.013044778903804
2020-08-13,4.094925461187716
2020-08-14,4.131650633570773
2020-08-17,4.368616486885186
2020-08-18,4.412938956309705
2020-08-19,4.387900544071377
2020-08-20,4.582924695482528
2020-08-21,4.668821645455752
2020-08-24,4.606078173940886
2020-08-25,4.7003141906335415
2020-08-26,4.852429901973589
2020-08-27,4.901910851850382
2020-08-28,4.91496092688804
2020-08-31,5.3925146273771905
2020-09-01,5.283186006093103
2020-09-02,4.844045037135276
2020-09-03,4.666945711221497
2020-09-04,4.666945711221497
2020-09-08,4.670340614634232
2020-09-09,4.7147654871254225
2020-09-10,4.702010352579071
2020-09-11,4.679215932579898
2020-09-14,4.702997814958508
2020-09-15,4.75453777678004
2020-09-16,4.746544421454264
2020-09-17,4.693499412257388
2020-09-18,4.711190142873809
2020-09-21,4.783740974870147
2020-09-22,4.838774059088845
2020-09-23,4.7441181286991245
2020-09-24,4.70851299327828
2020-09-25,4.7565551967111315
2020-09-28,4.785167961181026
2020-09-29,4.7790307749251895
2020-09-30,4.806709744160914
2020-10-01,4.868018084133819
2020-10-02,4.8133029057398105
2020-10-05,4.877168936051742
2020-10-06,4.87272391786999
2020-10-07,4.915302922370388
2020-10-08,4.901770449453876
2020-10-09,4.935217348521263
2020-10-12,4.962456353309854
2020-10-13,5.0241193408688485
2020-10-14,4.953851752081976
2020-10-15,4.911598674936993
2020-10-16,4.915440120468176
2020-10-19,4.892025577883734
2020-10-20,4.878127128611743
2020-10-21,4.787147149503511
2020-10-22,4.751173349220121
2020-10-23,4.751173349220121
2020-10-26,4.719060461427635
2020-10-27,4.717298379364204
2020-10-28,4.668875176525773
2020-10-29,4.739107099753946
2020-10-30,4.631181311302962
2020-11-02,4.638512651943064
2020-11-03,4.668804803455428
2020-11-04,4.7760794369174855
2020-11-05,5.040505686430786
2020-11-06,5.080587815553269
2020-11-09,4.9168201959076745
2020-11-10,4.813348987462284
2020-11-11,4.883947603274447
2020-11-12,4.848741405102107
2020-11-13,4.852001525641934
2020-11-16,4.920237081990313
2020-11-17,4.901206831669571
2020-11-18,4.896436818606216
2020-11-19,4.908386552425043
2020-11-20,4.853028636465529
2020-11-23,4.912726280078385
2020-11-24,4.993213273267969
2020-11-25,4.953044994892263
2020-11-27,4.946727499428718
2020-11-30,4.924979693727661
2020-12-01,4.961577230260084
2020-12-02,5.128214314940788
2020-12-03,5.099136643219206
2020-12-04,5.287938303966795
2020-12-07,5.238823755716748
2020-12-08,5.206726875896329
2020-12-09,5.2196175007296315
2020-12-10,5.245015495269479
2020-12-11,5.077023809692928
2020-12-14,5.003703327892335
2020-12-15,4.945431818103679
2020-12-16,4.932901993383404
2020-12-17,5.196897451849055
2020-12-18,5.225210612671058
2020-12-21,5.33006358205361
2020-12-22,5.519889110117482
2020-12-23,5.37463219853551
2020-12-24,5.349442916155002
2020-12-28,5.19369210201539
2020-12-29,5.214241682522281
2020-12-30,5.2670811293438575
2020-12-31,5.116368653200045
2021-01-04,5.061496967242219
2021-01-05,5.241517828354684
2021-01-06,5.047207539832067
2021-01-07,5.229211722904686
2021-01-08,5.087098812908963
2021-01-11,5.043092933241579
2021-01-12,5.349498764109562
2021-01-13,5.406602409450292
2021-01-14,5.255516162893231
2021-01-15,5.132299282155957
2021-01-19,5.223811501953599
2021-01-20,5.244682112409571
2021-01-21,5.199639827558199
2021-01-22,5.130561866641235
2021-01-25,5.079893942178796
2021-01-26,5.0864462070761345
2021-01-27,5.032282947820416
2021-01-28,4.950079305907442
2021-01-29,4.830193526486681
2021-02-01,4.945113381062079
2021-02-02,5.091746151200228
2021-02-03,5.022798087297369
2021-02-04,5.075843713347842
2021-02-05,5.076834167338321
2021-02-08,5.09564315894014
2021-02-09,5.0710534575427495
2021-02-10,5.029464813674723
2021-02-11,5.087983508226088
2021-02-12,5.1831560543504995
2021-02-16,5.129829853566463
2021-02-17,5.03598848595332
2021-02-18,5.043778084584499
2021-02-19,5.043213588460784
2021-02-22,4.84538536544127
2021-02-23,4.664711105678654
2021-02-24,4.664711105678654
2021-02-25,4.664711105678654
2021-02-26,4.664711105678654
2021-03-01,4.677722043359825
2021-03-02,4.586739593102399
2021-03-03,4.542491741262836
2021-03-04,4.421543822749923
2021-03-05,4.4061308363000915
2021-03-08,4.292823735428635
2021-03-09,4.4290769217963755
2021-03-10,4.365658606612525
2021-03-11,4.458204143091791
2021-03-12,4.4107319556309115
2021-03-15,4.429924995908951
2021-03-16,4.4973628006623505
2021-03-17,4.552449090949438
2021-03-18,4.436129839161735
2021-03-19,4.450375435421412
2021-03-22,4.5036026736936305
2021-03-23,4.401666588493506
2021-03-24,4.447759121708238
2021-03-25,4.434282675788006
2021-03-26,4.521389681428274
2021-03-29,4.510023111363586
2021-03-30,4.494583654991564
2021-03-31,4.569474080628694
2021-04-01,4.666173441217477
2021-04-05,4.7511537808781785
2021-04-06,4.682384938852438
2021-04-07,4.7027640984950425
2021-04-08,4.732972084022068
2021-04-09,4.771262717661376
2021-04-12,4.632771903316939
2021-04-13,4.627060998751517
2021-04-14,4.581435033656323
2021-04-15,4.613283792560637
2021-04-16,4.597140175364752
2021-04-19,4.511872500116587
2021-04-20,4.490931430109024
2021-04-21,4.490931430109024
2021-04-22,4.490931430109024
2021-04-23,4.490931430109024
2021-04-26,4.530771235349455
2021-04-27,4.5102939245072164
2021-04-28,4.511344537469515
2021-04-29,4.49191354516734
2021-04-30,4.4518931566526145
2021-05-03,4.460833208413284
2021-05-04,4.343951838433981
2021-05-05,4.342653241326932
2021-05-06,4.377157635673482
2021-05-07,4.435390606642747
2021-05-10,4.2457807092579545
2021-05-11,4.250860143760763
2021-05-12,4.179778168342741
2021-05-13,4.179778168342741
2021-05-14,4.179778168342741
2021-05-17,4.1816136463136715
2021-05-18,4.1533253379051
2021-05-19,4.158749108081391
2021-05-20,4.182602349250581
2021-05-21,4.176191974460881
2021-05-24,4.213521981015282
2021-05-25,4.223983977652905
2021-05-26,4.218433241681611
2021-05-27,4.238888803579621
2021-05-28,4.2248695168509665
2021-06-01,4.231942589549975
2021-06-02,4.227428537503098
2021-06-03,4.211650857051282
2021-06-04,4.23135838448988
2021-06-07,4.2233881820535135
2021-06-08,4.21691604979413
2021-06-09,4.20023517785918
2021-06-10,4.207600235763827
2021-06-11,4.203600925167671
2021-06-14,4.2352047677843085
2021-06-15,4.208098503159118
2021-06-16,4.191756545074355
2021-06-17,4.30932352581025
2021-06-18,4.284322362121314
2021-06-21,4.268248789730675
2021-06-22,4.344674329648881
2021-06-23,4.36989630693085
2021-06-24,4.395938558723712
2021-06-25,4.369413238867871
2021-06-28,4.529006397769175
2021-06-29,4.521413269573713
2021-06-30,4.504634627213314
2021-07-01,4.551500249218734
2021-07-02,4.584828349129264
2021-07-06,4.603268623331416
2021-07-07,4.5572633855375075
2021-07-08,4.486054399797322
2021-07-09,4.519273108076179
2021-07-12,4.582691161904242
2021-07-13,4.548297094241396
2021-07-14,4.485460198040027
2021-07-15,4.4046228621936026
2021-07-16,4.393625347439207
2021-07-19,4.379463260895777
2021-07-20,4.416636359921908
2021-07-21,4.444800335399975
2021-07-22,4.4763941379546415
2021-07-23,4.554015905263374
2021-07-26,4.564846277951675
2021-07-27,4.535296045634666
2021-07-28,4.553942671387534
2021-07-29,4.509378731350253
2021-07-30,4.512440601995175
2021-08-02,4.492541840545595
2021-08-03,4.49603867468338
2021-08-04,4.534545106011908
2021-08-05,4.552324864139084
2021-08-06,4.545955591981025
2021-08-09,4.541686807222778
2021-08-10,4.528888565039668
2021-08-11,4.529600805198064
2021-08-12,4.548864159587351
2021-08-13,4.559018902553584
2021-08-16,4.575115034594956
2021-08-17,4.5325397734554365
2021-08-18,4.516217447180548
2021-08-19,4.537212676807478
2021-08-20,4.541296847658467
2021-08-23,4.5819010950669625
2021-08-24,4.636975032830534
2021-08-25,4.6430695099178845
2021-08-26,4.5497676585852975
2021-08-27,4.61119954685212
2021-08-30,4.663026582808277
2021-08-31,4.684730930889263
2021-09-01,4.636072497579189
2021-09-02,4.704214476670612
2021-09-03,4.76389303923944
2021-09-07,4.714708810584852
2021-09-08,4.734562809848844
2021-09-09,4.754017543327835
2021-09-10,4.610006546199642
2021-09-13,4.5549741711623835
2021-09-14,4.605126277464827
2021-09-15,4.622306509720588
2021-09-16,4.7095954670760936
2021-09-17,4.6920683520001685
2021-09-20,4.670397244705307
2021-09-21,4.723237519497381
2021-09-22,4.832345044469989
2021-09-23,4.81961765919486
2021-09-24,4.802381850733985
2021-09-27,4.651454282480138
2021-09-28,4.525985002059346
2021-09-29,4.526918057514931
2021-09-30,4.613145463565923
2021-10-01,4.678139377728722
2021-10-04,4.4959618894526265
2021-10-05,4.579085869801753
2021-10-06,4.603728054631725
2021-10-07,4.582730257781841
2021-10-08,4.5518407398403244
2021-10-11,4.598017039486036
2021-10-12,4.673504115381058
2021-10-13,4.850521394197756
2021-10-14,4.8031424347799145
2021-10-15,4.833783468192644
2021-10-18,4.901645204576982
2021-10-19,4.904503050887012
2021-10-20,4.918983474817765
2021-10-21,4.945886207289735
2021-10-22,4.962492012536778
2021-10-25,4.933802415540319
2021-10-26,4.947727004814182
2021-10-27,4.844587269464047
2021-10-28,4.925163748468718
2021-10-29,5.054772264134617
2021-11-01,5.020873157110915
2021-11-02,5.015665262876539
2021-11-03,4.957538190476531
2021-11-04,5.017926297894609
2021-11-05,5.339895425991386
2021-11-08,5.495356276733081
2021-11-09,5.574310673308206
2021-11-10,5.409436555012948
2021-11-11,5.4561552030413365
2021-11-12,5.519632600158097
2021-11-15,5.491030958357869
2021-11-16,5.546539955511555
2021-11-17,5.468295623533062
2021-11-18,5.488530225371412
2021-11-19,5.547051009668041
2021-11-22,5.363543721047807
2021-11-23,5.177163110367896
2021-11-24,5.215586750601776
2021-11-26,5.177669292960715
2021-11-29,5.2916565795848065
2021-11-30,5.223534668156136
2021-12-01,5.027649582133028
2021-12-02,5.069962951208533
2021-12-03,4.926766426085095
2021-12-06,4.8042926168459
2021-12-07,4.8042926168459
2021-12-08,4.8042926168459
2021-12-09,4.8042926168459
2021-12-10,4.8042926168459
2021-12-13,4.680993461575809
2021-12-14,4.620503200548463
2021-12-15,4.797757459942121
2021-12-16,4.596707097323596
2021-12-17,4.662630043268519
2021-12-20,4.7045439412056504
2021-12-21,4.781998693438219
2021-12-22,4.869610501212781
2021-12-23,4.889833379054849
2021-12-27,5.010045665258707
2021-12-28,4.914173926152734
2021-12-29,4.942711032772418
2021-12-30,4.884455113807638
2021-12-31,4.8870550957927925
2022-01-03,4.931190042007023
2022-01-04,4.9317013396165255
2022-01-05,4.711094006808464
2022-01-06,4.727838421112878
2022-01-07,4.616728760861127
2022-01-10,4.559725822812407
2022-01-11,4.563477389053411
2022-01-12,4.574490419859221
2022-01-13,4.5806623483706
2022-01-14,4.6017200384218615
2022-01-18,4.50420250693383
2022-01-19,4.469469472573922
2022-01-20,4.44393971392008
2022-01-21,4.44393971392008
2022-01-24,4.44393971392008
2022-01-25,4.44393971392008
2022-01-26,4.44393971392008
2022-01-27,4.44393971392008
2022-01-28,4.44393971392008
2022-01-31,4.44393971392008
2022-02-01,4.44393971392008
2022-02-02,4.44393971392008
2022-02-03,4.44393971392008
2022-02-04,4.44393971392008
2022-02-07,4.44393971392008
2022-02-08,4.44393971392008
2022-02-09,4.44393971392008
2022-02-10,4.44393971392008
2022-02-11,4.44393971392008
2022-02-14,4.44393971392008
2022-02-15,4.44393971392008
2022-02-16,4.44393971392008
2022-02-17,4.44393971392008
2022-02-18,4.44393971392008
2022-02-22,4.44393971392008
2022-02-23,4.44393971392008
2022-02-24,4.44393971392008
2022-02-25,4.44393971392008
2022-02-28,4.44393971392008
2022-03-01,4.44393971392008
2022-03-02,4.44393971392008
2022-03-03,4.44393971392008
2022-03-04,4.44393971392008
2022-03-07,4.44393971392008
2022-03-08,4.44393971392008
2022-03-09,4.44393971392008
2022-03-10,4.44393971392008
2022-03-11,4.44393971392008
2022-03-14,4.44393971392008
2022-03-15,4.44393971392008
2022-03-16,4.44393971392008
2022-03-17,4.44393971392008
2022-03-18,4.44393971392008
2022-03-21,4.44393971392008
2022-03-22,4.44393971392008
2022-03-23,4.44393971392008
2022-03-24,4.44393971392008
2022-03-25,4.44393971392008
2022-03-28,4.44393971392008
2022-03-29,4.44393971392008
2022-03-30,4.44393971392008
2022-03-31,4.44393971392008
2022-04-01,4.44393971392008
2022-04-04,4.44393971392008
2022-04-05,4.44393971392008
2022-04-06,4.44393971392008
2022-04-07,4.44393971392008
2022-04-08,4.44393971392008
2022-04-11,4.44393971392008
2022-04-12,4.44393971392008
2022-04-13,4.44393971392008
2022-04-14,4.44393971392008
2022-04-18,4.44393971392008
2022-04-19,4.44393971392008
2022-04-20,4.44393971392008
2022-04-21,4.44393971392008
2022-04-22,4.44393971392008
2022-04-25,4.44393971392008
2022-04-26,4.44393971392008
2022-04-27,4.44393971392008
2022-04-28,4.44393971392008
2022-04-29,4.44393971392008
2022-05-02,4.44393971392008
2022-05-03,4.44393971392008
2022-05-04,4.44393971392008
2022-05-05,4.44393971392008
2022-05-06,4.44393971392008
2022-05-09,4.44393971392008
2022-05-10,4.44393971392008
2022-05-11,4.44393971392008
2022-05-12,4.44393971392008
2022-05-13,4.44393971392008
2022-05-16,4.44393971392008
2022-05-17,4.44393971392008
2022-05-18,4.44393971392008
2022-05-19,4.44393971392008
2022-05-20,4.44393971392008
2022-05-23,4.44393971392008
2022-05-24,4.44393971392008
2022-05-25,4.44393971392008
2022-05-26,4.44393971392008
2022-05-27,4.44393971392008
2022-05-31,4.44393971392008
2022-06-01,4.44393971392008
2022-06-02,4.44393971392008
2022-06-03,4.44393971392008
2022-06-06,4.44393971392008
2022-06-07,4.44393971392008
2022-06-08,4.44393971392008
2022-06-09,4.44393971392008
2022-06-10,4.44393971392008
2022-06-13,4.44393971392008
2022-06-14,4.44393971392008
2022-06-15,4.44393971392008
2022-06-16,4.44393971392008
2022-06-17,4.44393971392008
2022-06-21,4.44393971392008
2022-06-22,4.44393971392008
2022-06-23,4.44393971392008
2022-06-24,4.44393971392008
2022-06-27,4.44393971392008
2022-06-28,4.44393971392008
2022-06-29,4.44393971392008
2022-06-30,4.44393971392008
2022-07-01,4.44393971392008
2022-07-05,4.44393971392008
2022-07-06,4.44393971392008
2022-07-07,4.44393971392008
2022-07-08,4.44393971392008
2022-07-11,4.44393971392008
2022-07-12,4.44393971392008
2022-07-13,4.44393971392008
2022-07-14,4.44393971392008
2022-07-15,4.44393971392008
2022-07-18,4.44393971392008
2022-07-19,4.44393971392008
2022-07-20,4.44393971392008
2022-07-21,4.44393971392008
2022-07-22,4.44393971392008
2022-07-25,4.44393971392008
2022-07-26,4.44393971392008
2022-07-27,4.44393971392008
2022-07-28,4.44393971392008
2022-07-29,4.44393971392008
2022-08-01,4.44393971392008
2022-08-02,4.44393971392008
2022-08-03,4.44393971392008
2022-08-04,4.44393971392008
2022-08-05,4.44393971392008
2022-08-08,4.44393971392008
2022-08-09,4.44393971392008
2022-08-10,4.44393971392008
2022-08-11,4.44393971392008
2022-08-12,4.44393971392008
2022-08-15,4.44393971392008
2022-08-16,4.44393971392008
2022-08-17,4.44393971392008
2022-08-18,4.44393971392008
2022-08-19,4.44393971392008
2022-08-22,4.44393971392008
2022-08-23,4.44393971392008
2022-08-24,4.44393971392008
2022-08-25,4.44393971392008
2022-08-26,4.44393971392008
2022-08-29,4.44393971392008
2022-08-30,4.44393971392008
2022-08-31,4.44393971392008
2022-09-01,4.44393971392008
2022-09-02,4.44393971392008
2022-09-06,4.44393971392008
2022-09-07,4.44393971392008
2022-09-08,4.44393971392008
2022-09-09,4.44393971392008
2022-09-12,4.44393971392008
2022-09-13,4.44393971392008
2022-09-14,4.44393971392008
2022-09-15,4.44393971392008
2022-09-16,4.44393971392008
2022-09-19,4.44393971392008
2022-09-20,4.44393971392008
2022-09-21,4.44393971392008
2022-09-22,4.44393971392008
2022-09-23,4.44393971392008
2022-09-26,4.44393971392008
2022-09-27,4.44393971392008
2022-09-28,4.44393971392008
2022-09-29,4.44393971392008
2022-09-30,4.44393971392008
2022-10-03,4.44393971392008
2022-10-04,4.44393971392008
2022-10-05,4.44393971392008
2022-10-06,4.44393971392008
2022-10-07,4.44393971392008
2022-10-10,4.44393971392008
2022-10-11,4.44393971392008
2022-10-12,4.44393971392008
2022-10-13,4.44393971392008
2022-10-14,4.44393971392008
2022-10-17,4.44393971392008
2022-10-18,4.44393971392008
2022-10-19,4.44393971392008
2022-10-20,4.44393971392008
2022-10-21,4.44393971392008
2022-10-24,4.44393971392008
2022-10-25,4.44393971392008
2022-10-26,4.44393971392008
2022-10-27,4.44393971392008
2022-10-28,4.44393971392008
2022-10-31,4.44393971392008
2022-11-01,4.44393971392008
2022-11-02,4.44393971392008
2022-11-03,4.44393971392008
2022-11-04,4.44393971392008
2022-11-07,4.44393971392008
2022-11-08,4.44393971392008
2022-11-09,4.44393971392008
2022-11-10,4.44393971392008
2022-11-11,4.44393971392008
2022-11-14,4.44393971392008
2022-11-15,4.44393971392008
2022-11-16,4.44393971392008
2022-11-17,4.44393971392008
2022-11-18,4.44393971392008
2022-11-21,4.44393971392008
2022-11-22,4.44393971392008
2022-11-23,4.44393971392008
2022-11-25,4.44393971392008
2022-11-28,4.44393971392008
2022-11-29,4.44393971392008
2022-11-30,4.44393971392008
2022-12-01,4.44393971392008
2022-12-02,4.44393971392008
2022-12-05,4.44393971392008
2022-12-06,4.44393971392008
2022-12-07,4.44393971392008
2022-12-08,4.44393971392008
2022-12-09,4.44393971392008
2022-12-12,4.44393971392008
2022-12-13,4.44393971392008
2022-12-14,4.44393971392008
2022-12-15,4.44393971392008
2022-12-16,4.44393971392008
2022-12-19,4.44393971392008
2022-12-20,4.44393971392008
2022-12-21,4.44393971392008
2022-12-22,4.44393971392008
2022-12-23,4.44393971392008
2022-12-27,4.44393971392008
2022-12-28,4.44393971392008
2022-12-29,4.44393971392008
2022-12-30,4.44393971392008
2023-01-03,4.44393971392008
2023-01-04,4.44393971392008
2023-01-05,4.44393971392008
2023-01-06,4.44393971392008
2023-01-09,4.44393971392008
2023-01-10,4.44393971392008
2023-01-11,4.44393971392008
2023-01-12,4.44393971392008
2023-01-13,4.44393971392008
2023-01-17,4.44393971392008
2023-01-18,4.44393971392008
2023-01-19,4.44393971392008
2023-01-20,4.44393971392008
2023-01-23,4.44393971392008
2023-01-24,4.44393971392008
2023-01-25,4.44393971392008
2023-01-26,4.44393971392008
2023-01-27,4.44393971392008
2023-01-30,4.44393971392008
2023-01-31,4.44393971392008
2023-02-01,4.44393971392008
2023-02-02,4.44393971392008
2023-02-03,4.44393971392008
2023-02-06,4.468563989974319
2023-02-07,4.650560683483979
2023-02-08,4.55641798161183
2023-02-09,4.504878922804167
2023-02-10,4.345486166168287
2023-02-13,4.464235562133621
2023-02-14,4.5911700459688465
2023-02-15,4.541427360552927
2023-02-16,4.40382486536326
2023-02-17,4.3434939219597
2023-02-21,4.255683815973174
2023-02-22,4.254820460791768
2023-02-23,4.563895724563633
2023-02-24,4.52352732408923
2023-02-27,4.530952514856321
2023-02-28,4.536367272321133
2023-03-01,4.470956539828525
2023-03-02,4.5441112516770765
2023-03-03,4.676796211470206
2023-03-06,4.638589922880753
2023-03-07,4.608016002419259
2023-03-08,4.7064532436575535
2023-03-09,4.605101898324117
2023-03-10,4.540319598712
2023-03-13,4.549654970371107
2023-03-14,4.7539335643055685
2023-03-15,4.796321958416234
2023-03-16,4.984235944513696
2023-03-17,4.942013127008988
2023-03-20,4.975310843894759
2023-03-21,5.036128841585811
2023-03-22,5.049259118070852
2023-03-23,5.156162135634509
2023-03-24,5.123640413186879
2023-03-27,5.076105124842861
2023-03-28,5.048840044768174
2023-03-29,5.141155114368448
2023-03-30,5.2003050951268674
2023-03-31,5.2696098974110575
2023-04-03,5.297192827688811
2023-04-04,5.253458887478537
2023-04-05,5.170851599998983
2023-04-06,5.218186890210782
2023-04-10,5.2671171409910835
2023-04-11,5.217348261496342
2023-04-12,5.146352213823862
2023-04-13,5.185092743671521
2023-04-14,5.224171072589807
2023-04-17,5.232772929079394
2023-04-18,5.297363360662597
2023-04-19,5.311022357256338
2023-04-20,5.205226926434279
2023-04-21,5.205634064246518
2023-04-24,5.19674551374732
2023-04-25,5.0763998195323685
2023-04-26,5.165053149883903
2023-04-27,5.387489522227024
2023-04-28,5.455037864184855
2023-05-01,5.598035418221595
2023-05-02,5.4971081885937485
2023-05-03,5.438856220490117
2023-05-04,5.389917268094542
2023-05-05,5.50442104060673
2023-05-08,5.5579834560723524
2023-05-09,5.496695482288984
2023-05-10,5.528310055033384
2023-05-11,5.513510100505245
2023-05-12,5.474943397460833
2023-05-15,5.5739472348702614
2023-05-16,5.601453044934636
2023-05-17,5.728893216833359
2023-05-18,5.918058871097689
2023-05-19,5.8658045647607855
2023-05-22,5.874198132017559
2023-05-23,5.811583147400017
2023-05-24,5.811961183903638
2023-05-25,6.629965575474819
2023-05-26,6.795223169557557
2023-05-30,6.922846595438089
2023-05-31,6.6942404182396436
2023-06-01,6.95341234190701
2023-06-02,6.90609388505206
2023-06-05,6.881331195377389
2023-06-06,6.824316730510163
2023-06-07,6.648871359310244
2023-06-08,6.7659406594856755
2023-06-09,6.796172129458482
2023-06-12,6.912729456849848
2023-06-13,7.079031539305096
2023-06-14,7.303485297012022
2023-06-15,7.323038374364249
2023-06-16,7.3216932940181225
2023-06-20,7.463017213468333
2023-06-21,7.363650691078092
2023-06-22,7.383026004804604
2023-06-23,7.321418044912932
2023-06-26,7.084839552564176
2023-06-27,7.2746915706134745
2023-06-28,7.181927864199175
2023-06-29,7.125451171132161
2023-06-30,7.31973393866763
2023-07-03,7.325217378876881
2023-07-05,7.370400875564233
2023-07-06,7.331738123745475
2023-07-07,7.364774414566639
2023-07-10,7.353972586673534
2023-07-11,7.405826224293352
2023-07-12,7.639103746061779
2023-07-13,7.887785337486629
2023-07-14,7.803376053001732
2023-07-17,7.92096342139586
2023-07-18,8.040806474666091
2023-07-19,8.022552375346839
2023-07-20,7.766665954182392
2023-07-21,7.582463013182123
2023-07-24,7.592588189104779
2023-07-25,7.7065696031288935
2023-07-26,7.682320668004653
2023-07-27,7.730177854144823
2023-07-28,7.820978003952118
2023-07-31,7.777572695720425
2023-08-01,7.815348140761204
2023-08-02,7.424869975975973
2023-08-03,7.464643911602226
2023-08-04,7.624651218823617
2023-08-07,7.831591493669817
2023-08-08,7.701471416471251
2023-08-09,7.108019777309398
2023-08-10,7.108019777309398
2023-08-11,7.108019777309398
2023-08-14,7.189556458000882
2023-08-15,7.16525021608082
2023-08-16,7.13551671136555
2023-08-17,7.032344875850375
2023-08-18,7.021536854851879
2023-08-21,7.0540614861081385
2023-08-22,7.087967059140903
2023-08-23,7.134060235270793
2023-08-24,7.053722652268566
2023-08-25,7.07441931895073
2023-08-28,7.109964631663125
2023-08-29,7.178853091240004
2023-08-30,7.236085616147085
2023-08-31,7.226005287539888
2023-09-01,7.229706628361878
2023-09-05,7.162482422918895
2023-09-06,7.0807231073059365
2023-09-07,7.092292149452522
2023-09-08,7.0756327005167075
2023-09-11,7.076290938482986
2023-09-12,7.022648565387507
2023-09-13,6.955383605210348
2023-09-14,7.074598801373774
2023-09-15,7.0234784945961675
2023-09-18,7.0587780352743055
2023-09-19,6.826502581363313
2023-09-20,6.789798895471808
2023-09-21,6.789798895471808
2023-09-22,6.789798895471808
2023-09-25,6.764725003030477
2023-09-26,6.784427912437947
2023-09-27,6.81088758212582
2023-09-28,6.84573258105045
2023-09-29,6.85499501320634
2023-10-02,6.862096904484924
2023-10-03,6.7497312238067355
2023-10-04,6.799016875838375
2023-10-05,6.809733631295845
2023-10-06,6.944421853259677
2023-10-09,7.0240298594268005
2023-10-10,7.043473877536797
2023-10-11,7.167647355554798
2023-10-12,7.1698641129401715
2023-10-13,7.1446082805803535
2023-10-16,7.1826917939531
2023-10-17,7.161527180134123
2023-10-18,7.163012129635744
2023-10-19,7.109820620393513
2023-10-20,7.038072685800897
2023-10-23,7.0049461676093365
2023-10-24,7.0635729348256335
2023-10-25,6.9604428297101375
2023-10-26,6.891964548587086
2023-10-27,6.8850651352475065
2023-10-30,6.901695742096087
2023-10-31,6.905853623639766
2023-11-01,6.921417889461142
2023-11-02,6.928347357088947
2023-11-03,6.919179242729637
2023-11-06,6.881259894074349
2023-11-07,6.99159469525666
2023-11-08,7.00410710193451
2023-11-09,6.943868306280065
2023-11-10,7.06964463291985
2023-11-13,7.17063401782991
2023-11-14,7.2986120705439
2023-11-15,7.253967216594232
2023-11-16,7.179962940318282
2023-11-17,7.231574805996335
2023-11-20,7.358278887146792
2023-11-21,7.124510624656031
2023-11-22,7.117709432007718
2023-11-24,7.0552667450035305
2023-11-27,7.0244700425429905
2023-11-28,7.171190193346345
2023-11-29,7.597149292718244
2023-11-30,7.678816782426249
2023-12-01,7.679608367240894
2023-12-04,7.479071154394395
2023-12-05,7.507988555714475
2023-12-06,7.51622445904659
2023-12-07,7.52995105768957
2023-12-08,7.573510220082501
2023-12-11,7.701779672688049
2023-12-12,7.743941540678342
2023-12-13,7.7696109225489725
2023-12-14,7.808322327451999
2023-12-15,7.911156523864701
2023-12-18,7.899409716044352
2023-12-19,7.8923720660479
2023-12-20,7.73885562327135
2023-12-21,7.840267007780138
2023-12-22,7.82207132029378
2023-12-26,7.876821695723994
2023-12-27,7.9329774971913745
2023-12-28,7.904066369781747
2023-12-29,7.809266157991124
2024-01-02,7.504820986485303
2024-01-03,7.410491603447282
2024-01-04,7.410491603447282
2024-01-05,7.410491603447282
2024-01-08,7.702100995851325
2024-01-09,7.967125063634082
2024-01-10,8.069763675101239
2024-01-11,8.092515434814231
2024-01-12,8.036764438237004
2024-01-16,8.401539306032625
2024-01-17,8.291902073873732
2024-01-18,8.4585083057287
2024-01-19,8.872960625135804
2024-01-22,8.832690255478044
2024-01-23,8.818579964268293
2024-01-24,9.123404494610359
2024-01-25,9.07694015855241
2024-01-26,8.949299906004299
2024-01-29,9.116998367430567
2024-01-30,8.974683013450296
2024-01-31,8.729146727683673
2024-02-01,8.903849506659352
2024-02-02,9.155167300443502
2024-02-05,9.048735220444907
2024-02-06,8.875517578529278
2024-02-07,9.186789147422404
2024-02-08,9.22218667162603
2024-02-09,9.397480380306169
2024-02-12,9.264024808688688
2024-02-13,9.271172698425662
2024-02-14,9.63831174331457
2024-02-15,9.540471355170398
2024-02-16,9.432702797922285
2024-02-20,9.135424216498254
2024-02-21,8.745096666065752
2024-02-22,9.20891253662164
2024-02-23,9.067946457067993
2024-02-26,9.02085547127974
2024-02-27,9.051761149925312
2024-02-28,8.95580897703241
2024-02-29,9.458059022737213
2024-03-01,9.900108052532993
2024-03-04,10.135516048471242
2024-03-05,10.169877252526152
2024-03-06,10.466400304383814
2024-03-07,10.7057312671158
2024-03-08,10.316045016135213
2024-03-11,9.98144453452094
2024-03-12,10.43636379007675
2024-03-13,10.154954213600366
2024-03-14,9.99211644448409
2024-03-15,9.986197995989045
2024-03-18,10.020381606726755
2024-03-19,10.072540546659813
2024-03-20,10.126413755044739
2024-03-21,10.185209785075081
2024-03-22,10.343068997709576
2024-03-25,10.527023161330288
2024-03-26,10.28234917652329
2024-03-27,9.992578673375753
2024-03-28,10.024585875761904
2024-04-01,10.01916281989974
2024-04-02,10.010893838335623
2024-04-03,10.211932798895715
2024-04-04,10.03692341414726
2024-04-05,10.299576045250735
2024-04-08,10.48755958851983
2024-04-09,10.342280679759172
2024-04-10,10.329208857629046
2024-04-11,10.46718907921258
2024-04-12,10.273290845994959
2024-04-15,9.926097977739301
2024-04-16,9.998967924056972
2024-04-17,9.783816684329024
2024-04-18,9.545057799004192
2024-04-19,9.451100131963223
2024-04-22,9.51064592236187
2024-04-23,9.570799311648898
2024-04-24,9.601991605866306
2024-04-25,9.50635828270855
2024-04-26,9.988965928225019
2024-04-29,9.812466556738618
2024-04-30,9.711493595654806
2024-05-01,9.742115087269227
2024-05-02,9.828144881295906
2024-05-03,9.845664988342303
2024-05-06,9.871555977366413
2024-05-07,9.967494135402237
2024-05-08,9.911297457044224
2024-05-09,9.92653918753215
2024-05-10,9.886943185218799
2024-05-13,9.903684508379635
2024-05-14,9.937658372907245
2024-05-15,10.000418185079072
2024-05-16,10.049463424829831
2024-05-17,10.106419710691961
2024-05-20,10.137307200380022
2024-05-21,10.167904011578122
2024-05-22,10.122072648117971
2024-05-23,10.03421354606035
2024-05-24,10.075496537677118
2024-05-28,10.122681076738758
2024-05-29,10.105635422771524
2024-05-30,9.98944685797439
2024-05-31,10.001476621934355
2024-06-03,10.018701990234547
2024-06-04,10.038948341898909
2024-06-05,10.093135025257691
2024-06-06,10.132732233198377
2024-06-07,10.061626194275734
2024-06-10,10.08646601682353
2024-06-11,10.134799974317882
2024-06-12,10.173507393962389
2024-06-13,10.09043319108332
2024-06-14,10.140134670312317
2024-06-17,10.153249374726418
2024-06-18,10.084962668509455
2024-06-20,10.122616223365533
2024-06-21,10.212326812499294
2024-06-24,10.21407789322937
2024-06-25,10.360439860751308
2024-06-26,10.354956144106076
2024-06-27,10.40100196584649
2024-06-28,10.298869741613403
2024-07-01,10.327970494213277
2024-07-02,10.394605525282092
2024-07-03,10.415322911820745
2024-07-05,10.557889765494426
2024-07-08,10.51138219296573
2024-07-09,10.510008934204201
2024-07-10,10.577394195651419
2024-07-11,10.410126230986997
2024-07-12,10.394577457789076
2024-07-15,10.438337056117845
2024-07-16,10.357540213914966
2024-07-17,10.26406848402991
2024-07-18,10.26406848402991
2024-07-19,10.26406848402991
2024-07-22,10.299084614544887
2024-07-23,10.2762257984195
2024-07-24,9.749481388613516
2024-07-25,9.689167165170431
2024-07-26,9.689167165170431
2024-07-29,9.63559592126158
2024-07-30,9.578775827265318
2024-07-31,9.618606380568217
2024-08-01,9.569600934972538
2024-08-02,9.397839488003482
2024-08-05,9.271665232585148
2024-08-06,9.279170685422669
2024-08-07,9.183588426128217
2024-08-08,9.232131490474979
2024-08-09,9.173208311611912
2024-08-12,9.089075616045063
2024-08-13,9.195865187005321
2024-08-14,9.246991367696484
2024-08-15,9.269774616455653
2024-08-16,9.317871430975451
2024-08-19,9.370164934146501
2024-08-20,9.36567888611099
2024-08-21,9.393957720705576
2024-08-22,9.370466084831182
2024-08-23,9.384888150085244
2024-08-26,9.321715731442453
2024-08-27,9.322178944196825
2024-08-28,9.333418729798076
2024-08-29,9.40910639429421
2024-08-30,9.43175491795676
2024-09-03,9.379594073481776
2024-09-04,9.280927655278822
2024-09-05,9.269936772785215
2024-09-06,9.268410343024932
2024-09-09,9.312340756323009
2024-09-10,9.421819373026555
2024-09-11,9.449101588429969
2024-09-12,9.504523263650075
2024-09-13,9.475818487116458
2024-09-16,9.48627662538832
2024-09-17,9.456295134328222
2024-09-18,9.427440857959736
2024-09-19,9.458432154415231
2024-09-20,9.415399530700942
2024-09-23,9.425367577475592
2024-09-24,9.422804936159515
2024-09-25,9.360533820354185
2024-09-26,9.316398894891561
2024-09-27,9.333963376068626
2024-09-30,9.452148498762451
2024-10-01,9.458884476693122
2024-10-02,9.509484427540169
2024-10-03,9.634080491263806
2024-10-04,9.808188286073676
2024-10-07,9.813855433617402
2024-10-08,9.967992812427816
2024-10-09,9.992631351890427
2024-10-10,9.999957671286694
2024-10-11,10.087524146267025
2024-10-14,10.02847923584504
2024-10-15,9.997754547161993
2024-10-16,10.064420051294679
2024-10-17,10.015608028835416
2024-10-18,10.077016911813395
2024-10-21,10.561879447887694
2024-10-22,10.623158574776802
2024-10-23,10.610945310952541
2024-10-24,10.644091323737882
2024-10-25,10.746985419595887
2024-10-28,10.906053212912454
2024-10-29,11.106380840860073
2024-10-30,11.091290072625519
2024-10-31,11.025029761818388
2024-11-01,10.832137064408172
2024-11-04,10.680775898946415
2024-11-05,10.91431593935813
2024-11-06,11.082772596891424
2024-11-07,14.123940402397018
2024-11-08,15.67194696035498
2024-11-11,15.55528894909051
2024-11-12,15.567721718216742
2024-11-13,15.30778628871919
2024-11-14,15.327155264754666
2024-11-15,15.568354612841041
2024-11-18,15.542922670773606
2024-11-19,16.521035003500916
2024-11-20,16.602999492988193
2024-11-21,16.29019434716072
2024-11-22,17.068009281076378
2024-11-25,16.589391278802875
2024-11-26,17.04420262600123
2024-11-27,17.02352657502173
2024-11-29,17.401056548180453
2024-12-02,17.48898792077772
2024-12-03,18.78477474456207
2024-12-04,18.96177521872374
2024-12-05,19.31143350602732
2024-12-06,20.470620381632042
2024-12-09,18.018342398980803
2024-12-10,17.899108101976726
2024-12-11,18.02213990209119
2024-12-12,18.074541852625256
2024-12-13,18.292505436323147
2024-12-16,18.721027031947685
2024-12-17,18.96546390842198
2024-12-18,17.926371975428687
2024-12-19,18.04965603316665
2024-12-20,18.18528578017567
2024-12-23,18.12303761660632
2024-12-24,18.17313944570172
2024-12-26,18.283140944956116
2024-12-27,17.74823572627853
2024-12-30,17.60943454433314
2024-12-31,17.18946764896866
2025-01-02,17.62578409507456
2025-01-03,18.214845367744665
2025-01-06,18.025344782201174
2025-01-07,16.922728912584784
2025-01-08,16.86699707154201
2025-01-10,16.586466452214157
2025-01-13,16.628256383842412
2025-01-14,16.771655916302464
2025-01-15,17.16567305794166
2025-01-16,17.144357823544325
2025-01-17,17.676953251197112
2025-01-21,17.53778908152509
2025-01-22,18.200544340408406
2025-01-23,18.25252803553119
2025-01-24,18.19318909298397
2025-01-27,17.209380606122565
2025-01-28,17.673355456524494
2025-01-29,17.81963950094049
2025-01-30,17.79791966692575
2025-01-31,17.90468841969012
2025-02-03,17.9932927551947
2025-02-04,19.477064464171825
2025-02-05,19.028555504685425
2025-02-06,19.893158525012918
2025-02-07,19.7412117939801
2025-02-10,20.284758985884128
2025-02-11,19.825469525382776
2025-02-12,20.218358543225772
2025-02-13,22.637254777840408
2025-02-14,23.711900284130717
2025-02-18,23.639987102884646
2025-02-19,22.906925873430595
2025-02-20,20.740795304334654
2025-02-21,20.740795304334654
2025-02-24,20.723044147742947
2025-02-25,20.302673461306373
2025-02-26,20.118571445204616
2025-02-27,20.118571445204616
2025-02-28,20.118571445204616
2025-03-03,20.13942043956097
2025-03-04,19.939494934921722
2025-03-05,19.908847812026757
2025-03-06,19.935114074693267
2025-03-07,19.99508993354763
2025-03-10,19.977141193609594
2025-03-11,19.977141193609594
2025-03-12,19.977141193609594
2025-03-13,19.977141193609594
2025-03-14,19.977141193609594
2025-03-17,19.977141193609594
2025-03-18,19.977141193609594
2025-03-19,19.977141193609594
2025-03-20,19.977141193609594
2025-03-21,19.977141193609594
2025-03-24,19.977141193609594
2025-03-25,19.977141193609594
2025-03-26,19.977141193609594
2025-03-27,19.977141193609594
2025-03-28,19.977141193609594
2025-03-31,19.977141193609594
2025-04-01,19.977141193609594
2025-04-02,19.977141193609594
2025-04-03,19.977141193609594
2025-04-04,19.977141193609594
2025-04-07,19.977141193609594
2025-04-08,19.977141193609594
2025-04-09,19.977141193609594
2025-04-10,19.977141193609594
2025-04-11,19.977141193609594
2025-04-14,19.977141193609594
2025-04-15,19.977141193609594
2025-04-16,19.977141193609594
2025-04-17,19.977141193609594
2025-04-21,19.977141193609594
2025-04-22,19.977141193609594
2025-04-23,19.977141193609594
2025-04-24,19.977141193609594
2025-04-25,19.977141193609594
2025-04-28,19.977141193609594
2025-04-29,19.977141193609594
2025-04-30,19.977141193609594
2025-05-01,19.977141193609594
2025-05-02,19.977141193609594
2025-05-05,19.977141193609594
2025-05-06,19.977141193609594
2025-05-07,19.977141193609594
2025-05-08,19.977141193609594
2025-05-09,19.977141193609594
2025-05-12,19.977141193609594
2025-05-13,19.977141193609594
2025-05-14,19.977141193609594
2025-05-15,19.977141193609594
2025-05-16,19.977141193609594
2025-05-19,20.121348740677714
2025-05-20,20.065416911356543
2025-05-21,19.752464389197737
2025-05-22,19.905094686801483
2025-05-23,19.605870907366242
2025-05-27,19.79594651441413
2025-05-28,19.80827680308088
2025-05-29,19.67269297899942
2025-05-30,20.49941568988173
2025-06-02,20.63721393552602
2025-06-03,20.761937276820106
2025-06-04,20.399050914600586
2025-06-05,19.620315580355314
2025-06-06,19.682105222486847
2025-06-09,19.613892713960148
2025-06-10,19.6741961916268
2025-06-11,19.95668238188452
2025-06-12,19.793431261365658
2025-06-13,19.591375408657843
2025-06-16,20.058369162171097
2025-06-17,19.56027264860146
2025-06-18,19.528078413990613
2025-06-20,19.31503559518835
2025-06-23,19.744897021407674
2025-06-24,19.954992880424644
2025-06-25,20.025373276256296
2025-06-26,20.184927078994633
2025-06-27,19.143324993275982
2025-06-30,19.55227980519392
2025-07-01,18.91849555742685
2025-07-02,19.08910723759449
2025-07-03,19.418127575070933
2025-07-07,19.818063715797326
2025-07-08,19.78253453853656
2025-07-09,20.16810778467495
2025-07-10,19.558791487391524
2025-07-11,19.404753078754
2025-07-14,19.963450100552322
2025-07-15,20.116427170618984
2025-07-16,20.524747025499835
2025-07-17,21.03195194290224
2025-07-18,20.87890928406373
2025-07-21,20.673558400930368
2025-07-22,20.265826236039445
2025-07-23,20.843668255072842
2025-07-24,20.89461054592151
2025-07-25,21.29025035051037
2025-07-28,21.307138513925068
2025-07-29,21.255169729840027
2025-07-30,21.466667069848853
2025-07-31,21.55669797734872
2025-08-01,20.90295918832949
2025-08-04,21.698345641210537
2025-08-05,22.818099782700386
2025-08-06,23.3468473260048
2025-08-07,23.313703561516274
2025-08-08,23.718019354032062
2025-08-11,23.467197656098037
2025-08-12,23.852053717308863
2025-08-13,23.305309823123878
2025-08-14,23.06428156161755
2025-08-15,22.872028905568804
2025-08-18,22.64816921810426
2025-08-19,21.718934122529554
2025-08-20,21.718934122529554
2025-08-21,21.718934122529554
2025-08-22,21.718934122529554
2025-08-25,21.957970358755393
2025-08-26,22.442639857793147
2025-08-27,22.2109699805343
2025-08-28,22.851527536082028
2025-08-29,22.704202589079316
2025-09-02,22.608821210166884
2025-09-03,22.838474278141675
2025-09-04,23.530101316093223
2025-09-05,23.418971063741836
2025-09-08,24.773581067257386
2025-09-09,24.83360033948559
2025-09-10,24.958669823794775
2025-09-11,25.280357966988255
2025-09-12,25.41670984117843
2025-09-15,26.039430286797007
2025-09-16,26.249881285280814
2025-09-17,26.371340307610716
2025-09-18,27.064980028014617
2025-09-19,27.849106633577357
2025-09-22,27.99363227727018
2025-09-23,27.62908273968839
2025-09-24,27.315054475422713
2025-09-25,26.855539250377273
2025-09-26,27.59422010448546
2025-09-29,28.629600201100477
2025-09-30,28.48370733059206
2025-10-01,28.8939535711978
2025-10-02,28.825824263852212
2025-10-03,28.653359584435638
2025-10-06,27.758762137420103
2025-10-07,27.944807304691103
2025-10-08,28.028207832902574
2025-10-09,28.146891882211758
2025-10-10,27.688192647954274
2025-10-13,27.723003366069037
2025-10-14,27.31806005903077
2025-10-15,29.096149942826003
2025-10-16,28.74250766395201
2025-10-17,28.703914131043845
2025-10-20,29.524204842469622
2025-10-21,29.37142893945228
2025-10-22,28.49571812926318
2025-10-23,29.192978915441635
2025-10-24,30.35965358064376
2025-10-27,31.188544098792036
2025-10-28,31.722422992154613
2025-10-29,32.05914007449448
2025-10-30,31.08350818556461
2025-10-31,31.109517602257036
2025-11-03,31.174453400286332
2025-11-04,29.778108281138884
2025-11-05,30.60629290326861
2025-11-06,29.068389205055453
2025-11-07,28.94708531378867
2025-11-10,29.364192474017194
2025-11-11,28.46351145320186
2025-11-12,28.689902148160407
2025-11-13,27.694079906114933
2025-11-14,28.275892232063445
2025-11-17,27.781961352010278
2025-11-18,26.954750095417744
2025-11-19,26.33494593449201
2025-11-20,26.171234715648772
2025-11-21,26.171234715648772
2025-11-24,26.348589287938857
2025-11-25,26.67378372525399
2025-11-26,26.577032716157667
2025-11-28,26.543770151440874
2025-12-01,26.173244295225505
2025-12-02,26.12268438946419
2025-12-03,26.045016473771813
2025-12-04,25.995248715417112
2025-12-05,26.033732582443434
2025-12-08,25.800448561505362
2025-12-09,25.871152163120914
2025-12-10,25.937016749628896
2025-12-11,25.773302522172827
2025-12-12,25.707228437799632
2025-12-15,25.63192751629342
2025-12-16,25.537824473564758
2025-12-17,25.17374322142743
2025-12-18,25.301549546941402
2025-12-19,25.37266166355918
2025-12-22,25.41040661045065
2025-12-23,25.425481694472015
2025-12-24,25.91837708541017
2025-12-26,25.85869886821314
2025-12-29,26.333508009703884
2025-12-30,26.17806912636476
2025-12-31,25.772579329759115
2026-01-02,27.445630651177616
2026-01-05,27.672516068624734
2026-01-06,29.39943957418883
2026-01-07,29.127559809239198
2026-01-08,28.292171906041943
2026-01-09,29.602266709918183
2026-01-12,29.786294977478597
2026-01-13,29.371750849067485
2026-01-14,29.078686464678256
2026-01-15,29.649889655554567
2026-01-16,31.047179952567262
2026-01-20,30.936291943071772
2026-01-21,32.21848464983874
2026-01-22,32.45112722536305
2026-01-23,32.63423510194038
2026-01-26,32.076316440246
2026-01-27,33.37461359520242
2026-01-28,34.627081185796065
2026-01-29,34.76274718741831
2026-01-30,33.334504170208376
2026-02-02,34.53914097710788
2026-02-03,33.45541558422107
2026-02-04,30.94678754968851
2026-02-05,30.94678754968851
2026-02-06,30.94678754968851
2026-02-09,31.013016258597943
2026-02-10,30.7145059018299
2026-02-11,31.75577497361658
2026-02-12,31.700156888715334
2026-02-13,31.79645216555036
2026-02-17,31.556705819219513
2026-02-18,32.13930304697887
2026-02-19,31.9749259338448
2026-02-20,32.44920641861659
2026-02-23,32.213357137902854
2026-02-24,32.22009208337156
2026-02-25,32.62012559039734
2026-02-26,31.995304093395994
2026-02-27,31.755476780995572
2026-03-02,31.663940755426673
2026-03-03,30.61486455948772
2026-03-04,31.043472400888607
2026-03-05,30.967871965391232
2026-03-06,30.42423630391682
2026-03-09,30.960511310239404
2026-03-10,30.931310606260773
2026-03-11,31.145004567068607
2026-03-12,30.291338449828366
2026-03-13,30.131863379850437
2026-03-16,29.852292505504096
2026-03-17,30.14954579296394
2026-03-18,29.560317603099488
2026-03-19,29.26540127706434
2026-03-20,28.90444192869505
2026-03-23,28.95933735442615
2026-03-24,28.95933735442615
2026-03-25,28.95933735442615
2026-03-26,28.95933735442615
2026-03-27,28.95933735442615
2026-03-30,28.95933735442615
2026-03-31,28.95933735442615
2026-04-01,28.95933735442615
2026-04-02,28.95933735442615
2026-04-06,28.95933735442615
2026-04-07,28.95933735442615
2026-04-08,28.95933735442615
2026-04-09,28.95933735442615
2026-04-10,28.95933735442615
2026-04-13,29.806110829276207
2026-04-14,29.768944855267883
2026-04-15,30.117869250456046
2026-04-16,30.809842331251627
2026-04-17,31.513940286416304
2026-04-20,31.76988472903563
2026-04-21,32.286876559952276
2026-04-22,32.72589879077127
2026-04-23,33.995527402507605
2026-04-24,37.52625173248976
2026-04-27,37.417188705872135
2026-04-28,36.752928998200055
2026-04-29,39.50726221181688
2026-04-30,40.40026612501002
2026-05-01,41.57492102765106
2026-05-04,40.536995631569894
2026-05-05,43.984625939651615
2026-05-06,45.495145343809945
2026-05-07,43.353236112415956
2026-05-08,48.04354762957048
2026-05-11,49.17520592721477
2026-05-12,46.41266521057385
2026-05-13,47.836582085413696
2026-05-14,47.33710046833055
2026-05-15,45.055656024875425
2026-05-18,43.7171023387618
2026-05-19,44.16643223341153
2026-05-20,47.1194690810638
