Date,Value
2018-01-02,1.0
2018-01-03,1.0
2018-01-04,1.0
2018-01-05,1.0
2018-01-08,1.0243276923826676
2018-01-09,1.02299762261486
2018-01-10,1.0227147207082186
2018-01-11,1.0309464810812712
2018-01-12,1.0410748266118746
2018-01-16,1.0380035739363198
2018-01-17,1.0468849402291185
2018-01-18,1.04906400992475
2018-01-19,1.0542907451539705
2018-01-22,1.0706713923263025
2018-01-23,1.0815583300165867
2018-01-24,1.0755838781881413
2018-01-25,1.0816515533097724
2018-01-26,1.1250984196153446
2018-01-29,1.1296294500490323
2018-01-30,1.1119749662434657
2018-01-31,1.1196926722553724
2018-02-01,1.1186672710036476
2018-02-02,1.1085748735493661
2018-02-05,1.0887600971532838
2018-02-06,1.087596784826517
2018-02-07,1.0823428640084685
2018-02-08,1.0836810618444972
2018-02-09,1.0743322034069598
2018-02-12,1.0906283459305035
2018-02-13,1.0868740323794384
2018-02-14,1.1201584607368233
2018-02-15,1.1362086080832472
2018-02-16,1.133429594038551
2018-02-20,1.1448975629615283
2018-02-21,1.1260284565294494
2018-02-22,1.1257275421106523
2018-02-23,1.1401683383216912
2018-02-26,1.1473448984937655
2018-02-27,1.1465912144678478
2018-02-28,1.1486094913089868
2018-03-01,1.1445924533238667
2018-03-02,1.1557297998837335
2018-03-05,1.1616160732866678
2018-03-06,1.1664518778644493
2018-03-07,1.1711787654917476
2018-03-08,1.1793037871885022
2018-03-09,1.1831157973602815
2018-03-12,1.1741203647323313
2018-03-13,1.162759400791097
2018-03-14,1.1588432562843258
2018-03-15,1.133346472008841
2018-03-16,1.1209692890571539
2018-03-19,1.1077166710480064
2018-03-20,1.1112672309532825
2018-03-21,1.110366349910721
2018-03-22,1.1017284241090186
2018-03-23,1.0966410582125925
2018-03-26,1.117591058059683
2018-03-27,1.0882695478707083
2018-03-28,1.071267592083626
2018-03-29,1.071267592083626
2018-04-02,1.0571834949468844
2018-04-03,1.0677790840529218
2018-04-04,1.076270069921847
2018-04-05,1.0889462402932715
2018-04-06,1.0768983693492207
2018-04-09,1.0720259492457336
2018-04-10,1.0793007084648436
2018-04-11,1.0786728645820534
2018-04-12,1.0922602096560057
2018-04-13,1.0831909274768208
2018-04-16,1.0884293959438207
2018-04-17,1.0986220512335048
2018-04-18,1.09983296802116
2018-04-19,1.091961451243444
2018-04-20,1.0884606805780441
2018-04-23,1.0865305484300372
2018-04-24,1.0868556916035903
2018-04-25,1.085421518131867
2018-04-26,1.0987768590481308
2018-04-27,1.0952736026551737
2018-04-30,1.0895818828554824
2018-05-01,1.1008377721625018
2018-05-02,1.0993775446411465
2018-05-03,1.094355793048762
2018-05-04,1.1014117925564695
2018-05-07,1.1090104191664976
2018-05-08,1.1154252471399098
2018-05-09,1.1262834288251584
2018-05-10,1.128546967859872
2018-05-11,1.121603837288094
2018-05-14,1.1195134848134718
2018-05-15,1.1175913000420774
2018-05-16,1.1176823126351678
2018-05-17,1.1189253583718115
2018-05-18,1.1146733929404546
2018-05-21,1.1263131114409402
2018-05-22,1.1234635768185073
2018-05-23,1.1314271810234806
2018-05-24,1.1321999493675037
2018-05-25,1.136004002750956
2018-05-29,1.1332356625978828
2018-05-30,1.1378201785523536
2018-05-31,1.1329674787740223
2018-06-01,1.144401451734423
2018-06-04,1.134320883600751
2018-06-05,1.132757552352626
2018-06-06,1.1353630810478759
2018-06-07,1.1293702878784382
2018-06-08,1.1237422985489116
2018-06-11,1.1400379446843094
2018-06-12,1.136822633268764
2018-06-13,1.1496322786935202
2018-06-14,1.1391250596098714
2018-06-15,1.1338000221468283
2018-06-18,1.1642476602343066
2018-06-19,1.1560164787655025
2018-06-20,1.1470050397300757
2018-06-21,1.119327807074121
2018-06-22,1.1035631932756989
2018-06-25,1.0771351977072356
2018-06-26,1.0771351977072356
2018-06-27,1.0771351977072356
2018-06-28,1.0771351977072356
2018-06-29,1.0771351977072356
2018-07-02,1.0673320306795735
2018-07-03,1.049950633714735
2018-07-05,1.0554488059943838
2018-07-06,1.0623372183768893
2018-07-09,1.0659972406130072
2018-07-10,1.0617491877796994
2018-07-11,1.0549242112467352
2018-07-12,1.0605802240929985
2018-07-13,1.038960701846531
2018-07-16,1.0521223993439173
2018-07-17,1.0433344844135157
2018-07-18,1.0426962650007654
2018-07-19,1.038228789975466
2018-07-20,1.0315276687334467
2018-07-23,1.0224341819882155
2018-07-24,0.9935344539686282
2018-07-25,1.005265613588311
2018-07-26,1.0769569541771673
2018-07-27,1.083408715274221
2018-07-30,1.0834321370829225
2018-07-31,1.0686929740329703
2018-08-01,1.0730567613959325
2018-08-02,1.0617482650754637
2018-08-03,1.0617482650754637
2018-08-06,1.0716019214742334
2018-08-07,1.077101261799164
2018-08-08,1.0487203344108542
2018-08-09,1.0352306918043617
2018-08-10,1.0341065281189499
2018-08-13,1.0466075152935226
2018-08-14,1.064367246406043
2018-08-15,1.0511552476451587
2018-08-16,1.0438039240311998
2018-08-17,1.061482143467803
2018-08-20,1.0693370348482327
2018-08-21,1.0810623411261524
2018-08-22,1.1065207046154002
2018-08-23,1.1596475473338934
2018-08-24,1.1874622826626022
2018-08-27,1.207500190953379
2018-08-28,1.2181731781387455
2018-08-29,1.2447842157213447
2018-08-30,1.2343369177502825
2018-08-31,1.2453805332558057
2018-09-04,1.2541217087115104
2018-09-05,1.2463062292609681
2018-09-06,1.2532124847411805
2018-09-07,1.2492406567163914
2018-09-10,1.2679640592149084
2018-09-11,1.2682866899569902
2018-09-12,1.2795044609614141
2018-09-13,1.270606206452233
2018-09-14,1.270606206452233
2018-09-17,1.2604252423047004
2018-09-18,1.2743342309951666
2018-09-19,1.2693759001815406
2018-09-20,1.2685089459642187
2018-09-21,1.2612991141167993
2018-09-24,1.2644493695176613
2018-09-25,1.267663845555889
2018-09-26,1.2609619742776166
2018-09-27,1.2492701560386514
2018-09-28,1.2551739609037964
2018-10-01,1.2472308809843993
2018-10-02,1.2328616650809276
2018-10-03,1.2298481828498138
2018-10-04,1.228744609629301
2018-10-05,1.2230039600589242
2018-10-08,1.2225982826001192
2018-10-09,1.226672290744315
2018-10-10,1.2038379975769606
2018-10-11,1.2038379975769606
2018-10-12,1.2038379975769606
2018-10-15,1.2058668237858707
2018-10-16,1.211526125365116
2018-10-17,1.2184135021654732
2018-10-18,1.2159574964581017
2018-10-19,1.2160642625340916
2018-10-22,1.2167203179566146
2018-10-23,1.2183035045525266
2018-10-24,1.2135487715790705
2018-10-25,1.223419552643465
2018-10-26,1.2179173966823669
2018-10-29,1.2229565508453906
2018-10-30,1.2229565508453906
2018-10-31,1.2229565508453906
2018-11-01,1.2229565508453906
2018-11-02,1.2229565508453906
2018-11-05,1.2229565508453906
2018-11-06,1.2229565508453906
2018-11-07,1.2229565508453906
2018-11-08,1.2229565508453906
2018-11-09,1.2229565508453906
2018-11-12,1.2229565508453906
2018-11-13,1.2229565508453906
2018-11-14,1.2229565508453906
2018-11-15,1.2229565508453906
2018-11-16,1.2229565508453906
2018-11-19,1.2229565508453906
2018-11-20,1.2229565508453906
2018-11-21,1.2229565508453906
2018-11-23,1.2229565508453906
2018-11-26,1.2229565508453906
2018-11-27,1.2229565508453906
2018-11-28,1.2229565508453906
2018-11-29,1.2229565508453906
2018-11-30,1.2229565508453906
2018-12-03,1.2229565508453906
2018-12-04,1.2229565508453906
2018-12-06,1.2229565508453906
2018-12-07,1.2229565508453906
2018-12-10,1.2229565508453906
2018-12-11,1.2229565508453906
2018-12-12,1.2229565508453906
2018-12-13,1.2229565508453906
2018-12-14,1.2229565508453906
2018-12-17,1.2229565508453906
2018-12-18,1.2229565508453906
2018-12-19,1.2229565508453906
2018-12-20,1.2229565508453906
2018-12-21,1.2229565508453906
2018-12-24,1.2229565508453906
2018-12-26,1.2229565508453906
2018-12-27,1.2229565508453906
2018-12-28,1.2229565508453906
2018-12-31,1.2229565508453906
2019-01-02,1.2229565508453906
2019-01-03,1.2229565508453906
2019-01-04,1.2229565508453906
2019-01-07,1.2229565508453906
2019-01-08,1.2229565508453906
2019-01-09,1.2229565508453906
2019-01-10,1.2229565508453906
2019-01-11,1.2229565508453906
2019-01-14,1.2229565508453906
2019-01-15,1.2229565508453906
2019-01-16,1.2229565508453906
2019-01-17,1.2229565508453906
2019-01-18,1.2229565508453906
2019-01-22,1.2229565508453906
2019-01-23,1.2229565508453906
2019-01-24,1.2229565508453906
2019-01-25,1.2229565508453906
2019-01-28,1.2229565508453906
2019-01-29,1.2229565508453906
2019-01-30,1.2229565508453906
2019-01-31,1.2229565508453906
2019-02-01,1.2229565508453906
2019-02-04,1.2229565508453906
2019-02-05,1.2229565508453906
2019-02-06,1.2229565508453906
2019-02-07,1.2229565508453906
2019-02-08,1.2229565508453906
2019-02-11,1.2229565508453906
2019-02-12,1.2229565508453906
2019-02-13,1.2229565508453906
2019-02-14,1.2229565508453906
2019-02-15,1.2229565508453906
2019-02-19,1.2185131148386796
2019-02-20,1.2277967164927048
2019-02-21,1.2322970823576425
2019-02-22,1.2525294038721293
2019-02-25,1.2642280392990335
2019-02-26,1.197551286426609
2019-02-27,1.1929550639678852
2019-02-28,1.1892041229870363
2019-03-01,1.1914343357167732
2019-03-04,1.1695914520168984
2019-03-05,1.1503952559120227
2019-03-06,1.1490483986922446
2019-03-07,1.1579684688134328
2019-03-08,1.1712995708391023
2019-03-11,1.198745937566395
2019-03-12,1.2017846567434196
2019-03-13,1.2130572896779035
2019-03-14,1.234034155409529
2019-03-15,1.23648472453505
2019-03-18,1.2620852721487816
2019-03-19,1.2716671755253184
2019-03-20,1.2892552197393843
2019-03-21,1.3607210715681917
2019-03-22,1.3141838263432861
2019-03-25,1.2918412999435573
2019-03-26,1.2886969007829938
2019-03-27,1.2707040018607403
2019-03-28,1.27074765000744
2019-03-29,1.2744161601203587
2019-04-01,1.2674115212378219
2019-04-02,1.2547111726036921
2019-04-03,1.249351157322459
2019-04-04,1.1721607174628463
2019-04-05,1.1721607174628463
2019-04-08,1.1603724586676833
2019-04-09,1.1490602644691172
2019-04-10,1.1926271789899783
2019-04-11,1.192375184302552
2019-04-12,1.189688687023279
2019-04-15,1.1876727636616051
2019-04-16,1.1710233350283628
2019-04-17,1.136171483953596
2019-04-18,1.1067204269027282
2019-04-22,1.1314443102241385
2019-04-23,1.1593608823342367
2019-04-24,1.1701164064944476
2019-04-25,1.141840723359714
2019-04-26,1.1569797905497645
2019-04-29,1.1572345703921956
2019-04-30,1.1484150164740945
2019-05-01,1.1332911810610544
2019-05-02,1.1687457303095183
2019-05-03,1.181893257342804
2019-05-06,1.1584992612184744
2019-05-07,1.1222939830269307
2019-05-08,1.1266031750655818
2019-05-09,1.119537958875912
2019-05-10,1.1348589857447253
2019-05-13,1.1018991579208364
2019-05-14,1.109399294452193
2019-05-15,1.1098344976676269
2019-05-16,1.0982829798130118
2019-05-17,1.0938967526903007
2019-05-20,1.0784630660462038
2019-05-21,1.0765458333448348
2019-05-22,1.0758486723234215
2019-05-23,1.0673431695682403
2019-05-24,1.0684238037249156
2019-05-28,1.0721550925985535
2019-05-29,1.0492644596402911
2019-05-30,1.057781443288886
2019-05-31,1.037899405827876
2019-06-03,1.0365827745281124
2019-06-04,1.0365827745281124
2019-06-05,1.0365827745281124
2019-06-06,1.0365827745281124
2019-06-07,1.0365827745281124
2019-06-10,1.0328114527675103
2019-06-11,1.0047068580678293
2019-06-12,1.020355879942778
2019-06-13,1.017000439313531
2019-06-14,1.009997454398885
2019-06-17,1.009101916022032
2019-06-18,1.010534528502895
2019-06-19,1.071792032642763
2019-06-20,1.072639443429063
2019-06-21,1.0590510950315926
2019-06-24,1.020120309928704
2019-06-25,0.9793549971156924
2019-06-26,0.9634458370135115
2019-06-27,0.9634458370135115
2019-06-28,0.9634458370135115
2019-07-01,0.948386295408655
2019-07-02,0.9603564320856524
2019-07-03,0.961737358126542
2019-07-05,0.9670436490904497
2019-07-08,0.986590456768714
2019-07-09,1.004940438984462
2019-07-10,1.0100023343079372
2019-07-11,0.992680870283428
2019-07-12,0.9871800881425938
2019-07-15,1.026914885450015
2019-07-16,1.0083827027729788
2019-07-17,1.0169730866105402
2019-07-18,1.0169817401261034
2019-07-19,1.007761435535947
2019-07-22,1.0210931386083413
2019-07-23,1.0229551137084554
2019-07-24,1.0313355087241256
2019-07-25,1.0305529588740838
2019-07-26,1.0408518207276032
2019-07-29,0.9988293366608358
2019-07-30,1.0047391082489687
2019-07-31,0.9685985364212939
2019-08-01,0.9685985364212939
2019-08-02,0.9685985364212939
2019-08-05,0.9723248352394942
2019-08-06,0.9852292140942966
2019-08-07,0.992512207137584
2019-08-08,1.0079423652729624
2019-08-09,1.0173855293761591
2019-08-12,1.0113264391620338
2019-08-13,1.0176786949168994
2019-08-14,1.0006052017330298
2019-08-15,1.0008392768221965
2019-08-16,1.0093028653155434
2019-08-19,1.0120468425135039
2019-08-20,1.0195352483880984
2019-08-21,1.0327742796842325
2019-08-22,1.0322162480936985
2019-08-23,1.0231457231198944
2019-08-26,1.0379665253648986
2019-08-27,1.0454216584438918
2019-08-28,1.038537503612944
2019-08-29,1.0377738051975125
2019-08-30,1.0320746481974874
2019-09-03,1.032554301844407
2019-09-04,1.0325898318711135
2019-09-05,1.0353599161018945
2019-09-06,1.02756109892904
2019-09-09,1.008888303412515
2019-09-10,0.9975290633449527
2019-09-11,0.9975290633449527
2019-09-12,0.9975290633449527
2019-09-13,0.9975290633449527
2019-09-16,1.0119198226413473
2019-09-17,1.023595455160002
2019-09-18,1.0380083365436361
2019-09-19,1.0288140288944283
2019-09-20,1.0164010786796802
2019-09-23,1.0278057468835828
2019-09-24,1.013208458785322
2019-09-25,1.036588768339671
2019-09-26,1.0323876055427923
2019-09-27,0.9996568450810449
2019-09-30,1.004415106041159
2019-10-01,0.9997400355634214
2019-10-02,0.9862684259263858
2019-10-03,0.9938184602063067
2019-10-04,1.0123383113885356
2019-10-07,1.0109038884647328
2019-10-08,0.9841640116403946
2019-10-09,1.0000148871177519
2019-10-10,1.0013729834917864
2019-10-11,1.0135236128977398
2019-10-14,1.0085491948799592
2019-10-15,1.0267829079811612
2019-10-16,1.0090361415905846
2019-10-17,1.016768239390131
2019-10-18,1.0080469151842943
2019-10-21,1.0276924682243664
2019-10-22,1.019861530749091
2019-10-23,1.004226987931398
2019-10-24,1.0732065718056265
2019-10-25,1.0820867409317607
2019-10-28,1.1105384145885713
2019-10-29,1.0902556035232858
2019-10-30,1.1004089261715508
2019-10-31,1.061297501237652
2019-11-01,1.061297501237652
2019-11-04,1.062197384866587
2019-11-05,1.0614917984990162
2019-11-06,1.072645447842641
2019-11-07,1.0850956504466551
2019-11-08,1.0850826535816331
2019-11-11,1.0957925235034607
2019-11-12,1.1015822286564978
2019-11-13,1.0997861011119028
2019-11-14,1.110232035489773
2019-11-15,1.1312652055662915
2019-11-18,1.1257330403540393
2019-11-19,1.1305402684893007
2019-11-20,1.1132505301203888
2019-11-21,1.098262434276038
2019-11-22,1.0662369497485027
2019-11-25,1.057795390550052
2019-11-26,1.0355095009102036
2019-11-27,1.0448476245767018
2019-11-29,1.039248273717404
2019-12-02,1.0412128770394915
2019-12-03,1.0455666127921224
2019-12-04,1.0513207392720227
2019-12-05,1.0462574706961214
2019-12-06,1.0549392084853908
2019-12-09,1.0511273696983812
2019-12-10,1.0724255741351079
2019-12-11,1.078807000550845
2019-12-12,1.1317239041239915
2019-12-13,1.1102914151800825
2019-12-16,1.1622690705956304
2019-12-17,1.1640514468232535
2019-12-18,1.1796322067553895
2019-12-19,1.2036467520782541
2019-12-20,1.2238622340419028
2019-12-23,1.262646476817679
2019-12-24,1.2865593014688872
2019-12-26,1.2965839640433572
2019-12-27,1.2896433656453445
2019-12-30,1.2595135890476508
2019-12-31,1.2641024589920726
2020-01-02,1.2771749421458711
2020-01-03,1.2771749421458711
2020-01-06,1.2951587263991264
2020-01-07,1.2902320593847099
2020-01-08,1.2950803211478406
2020-01-09,1.3242385424902976
2020-01-10,1.3151213137814404
2020-01-13,1.3372451540922254
2020-01-14,1.3207612045022028
2020-01-15,1.3223700619885639
2020-01-16,1.3470710113679516
2020-01-17,1.3700830769168957
2020-01-21,1.3669839374278796
2020-01-22,1.3744935226764818
2020-01-23,1.381542583074316
2020-01-24,1.3614568649148828
2020-01-27,1.3138668149914867
2020-01-28,1.3138668149914867
2020-01-29,1.3138668149914867
2020-01-30,1.3138668149914867
2020-01-31,1.3138668149914867
2020-02-03,1.3368232015974368
2020-02-04,1.3593687104537748
2020-02-05,1.3454794383669617
2020-02-06,1.3418598241553217
2020-02-07,1.3498706817788948
2020-02-10,1.3885775331542258
2020-02-11,1.3909794723356823
2020-02-12,1.4783991465759794
2020-02-13,1.4946367061872194
2020-02-14,1.4970380216020638
2020-02-18,1.5319784213100516
2020-02-19,1.599406360588273
2020-02-20,1.5835161278295284
2020-02-21,1.534201065914449
2020-02-24,1.4792303772938324
2020-02-25,1.4604346957173688
2020-02-26,1.4640557411197554
2020-02-27,1.4388848926381965
2020-02-28,1.4388848926381965
2020-03-02,1.454239458827458
2020-03-03,1.4379601695154292
2020-03-04,1.4879604730580502
2020-03-05,1.4690922111377478
2020-03-06,1.4647339971514426
2020-03-09,1.4085535848524429
2020-03-10,1.4085535848524429
2020-03-11,1.4085535848524429
2020-03-12,1.4085535848524429
2020-03-13,1.4085535848524429
2020-03-16,1.4085535848524429
2020-03-17,1.4085535848524429
2020-03-18,1.4085535848524429
2020-03-19,1.4085535848524429
2020-03-20,1.4085535848524429
2020-03-23,1.4085535848524429
2020-03-24,1.4085535848524429
2020-03-25,1.4085535848524429
2020-03-26,1.4085535848524429
2020-03-27,1.4085535848524429
2020-03-30,1.4085535848524429
2020-03-31,1.4085535848524429
2020-04-01,1.4085535848524429
2020-04-02,1.4085535848524429
2020-04-03,1.4085535848524429
2020-04-06,1.4085535848524429
2020-04-07,1.4085535848524429
2020-04-08,1.4085535848524429
2020-04-09,1.4085535848524429
2020-04-13,1.3976586344576116
2020-04-14,1.4708224386927569
2020-04-15,1.5204041761191465
2020-04-16,1.5447079039860392
2020-04-17,1.5342957511456943
2020-04-20,1.5685083986460613
2020-04-21,1.5053314004062166
2020-04-22,1.5053314004062166
2020-04-23,1.5053314004062166
2020-04-24,1.5053314004062166
2020-04-27,1.445797199060426
2020-04-28,1.4262827263416287
2020-04-29,1.416831424164049
2020-04-30,1.4013470241179542
2020-05-01,1.38016195395576
2020-05-04,1.4492037459833038
2020-05-05,1.5222215611869847
2020-05-06,1.549095491149295
2020-05-07,1.5450482876412335
2020-05-08,1.5340010805948971
2020-05-11,1.5948458857491405
2020-05-12,1.5642597432114147
2020-05-13,1.603328128204443
2020-05-14,1.5951295091714135
2020-05-15,1.6171460419853996
2020-05-18,1.5629646807582094
2020-05-19,1.5765259920555086
2020-05-20,1.629861224578519
2020-05-21,1.636944156314998
2020-05-22,1.674415393211662
2020-05-26,1.593099564066823
2020-05-27,1.5773343134079956
2020-05-28,1.5773343134079956
2020-05-29,1.5773343134079956
2020-06-01,1.6291402618498938
2020-06-02,1.6172251731838574
2020-06-03,1.613919288469805
2020-06-04,1.5659834872012306
2020-06-05,1.5041998995257742
2020-06-08,1.5083989225835186
2020-06-09,1.5008221554983971
2020-06-10,1.525081776664133
2020-06-11,1.470584657142651
2020-06-12,1.4639270449022206
2020-06-15,1.5252446352366333
2020-06-16,1.5488777231206063
2020-06-17,1.5351566115447297
2020-06-18,1.5481241735996787
2020-06-19,1.5330240038306129
2020-06-22,1.5801275212032766
2020-06-23,1.5666697235821356
2020-06-24,1.5465674242063958
2020-06-25,1.5677791807648214
2020-06-26,1.498714780525873
2020-06-29,1.4802374641475589
2020-06-30,1.5121601947821692
2020-07-01,1.4974752043879627
2020-07-02,1.5113086401110811
2020-07-06,1.4878535446017196
2020-07-07,1.4922938091236233
2020-07-08,1.5402405923594773
2020-07-09,1.5682283874330856
2020-07-10,1.5676327116542321
2020-07-13,1.4708765728163944
2020-07-14,1.4617043611773228
2020-07-15,1.4617043611773228
2020-07-16,1.4617043611773228
2020-07-17,1.4617043611773228
2020-07-20,1.5530575869897218
2020-07-21,1.505393640445581
2020-07-22,1.5068297840537856
2020-07-23,1.4204032104964757
2020-07-24,1.4172582959350912
2020-07-27,1.494067149361388
2020-07-28,1.466378982334387
2020-07-29,1.4929483862609914
2020-07-30,1.508930534113596
2020-07-31,1.4897973340823523
2020-08-03,1.5317742412633573
2020-08-04,1.520769553562237
2020-08-05,1.5206116429878596
2020-08-06,1.4872118701153618
2020-08-07,1.4048701859051866
2020-08-10,1.3653510949323793
2020-08-11,1.3003927982164727
2020-08-12,1.436104383459321
2020-08-13,1.4629019869574755
2020-08-14,1.4733610199769833
2020-08-17,1.5168621421498045
2020-08-18,1.510769690827075
2020-08-19,1.506200260594138
2020-08-20,1.519667884359034
2020-08-21,1.5280049906097406
2020-08-24,1.5052281554346405
2020-08-25,1.5252886625057749
2020-08-26,1.5327593237145503
2020-08-27,1.5059493583635692
2020-08-28,1.5187713439541533
2020-08-31,1.586241185567379
2020-09-01,1.6277753526755183
2020-09-02,1.5954959634800683
2020-09-03,1.5217409404127542
2020-09-04,1.5217409404127542
2020-09-08,1.522847909259528
2020-09-09,1.5373334317887297
2020-09-10,1.533174392528216
2020-09-11,1.5257418405896808
2020-09-14,1.5334963967791584
2020-09-15,1.5503019213090838
2020-09-16,1.5476955206484746
2020-09-17,1.5303992730637046
2020-09-18,1.5361676516450946
2020-09-21,1.5598240965884536
2020-09-22,1.5777686160944882
2020-09-23,1.546904384949868
2020-09-24,1.53529467038962
2020-09-25,1.5509597373189608
2020-09-28,1.5602893909091402
2020-09-29,1.5582883007167765
2020-09-30,1.5673134737020051
2020-10-01,1.5873041768737974
2020-10-02,1.5694633407941172
2020-10-05,1.590287951069234
2020-10-06,1.588838598056899
2020-10-07,1.6027223402951138
2020-10-08,1.5983096890029782
2020-10-09,1.6092155984327214
2020-10-12,1.6180975091008638
2020-10-13,1.6382038270248498
2020-10-14,1.6152917764224477
2020-10-15,1.6006885464464196
2020-10-16,1.6020011051058116
2020-10-19,1.5808663663006601
2020-10-20,1.5823845203014733
2020-10-21,1.5783797334230258
2020-10-22,1.5783797334230258
2020-10-23,1.5783797334230258
2020-10-26,1.5677115621003215
2020-10-27,1.56712618356259
2020-10-28,1.551039614110095
2020-10-29,1.5743712239505494
2020-10-30,1.5385174221099667
2020-11-02,1.540952981813089
2020-11-03,1.5510162629730848
2020-11-04,1.5866538520392022
2020-11-05,1.674498399105313
2020-11-06,1.6878140724647117
2020-11-09,1.6334091715124779
2020-11-10,1.6204848716655915
2020-11-11,1.643938433306982
2020-11-12,1.632242610898531
2020-11-13,1.6333255707047043
2020-11-16,1.656097310462927
2020-11-17,1.6497049939234962
2020-11-18,1.6481686053493794
2020-11-19,1.6521716259914896
2020-11-20,1.6335986786754155
2020-11-23,1.6572525668309765
2020-11-24,1.6777306245706787
2020-11-25,1.6700093886355294
2020-11-27,1.668666595618131
2020-11-30,1.6039017016630008
2020-12-01,1.6266875851000595
2020-12-02,1.663131202513517
2020-12-03,1.686896186121734
2020-12-04,1.733855529655154
2020-12-07,1.774042330334633
2020-12-08,1.7718022990130673
2020-12-09,1.7232783823277726
2020-12-10,1.7633370919654552
2020-12-11,1.7112855455204845
2020-12-14,1.7321453078418285
2020-12-15,1.7154937034452677
2020-12-16,1.6945172174505223
2020-12-17,1.7394810010698165
2020-12-18,1.7925472443819785
2020-12-21,1.746715078819498
2020-12-22,1.7624693116869588
2020-12-23,1.7254987148549104
2020-12-24,1.7520275377112873
2020-12-28,1.7198897670330258
2020-12-29,1.7247710886916408
2020-12-30,1.7666647335815533
2020-12-31,1.7677502042403521
2021-01-04,1.7809886449905166
2021-01-05,1.7998548077513572
2021-01-06,1.7910297280296539
2021-01-07,1.872542707881155
2021-01-08,1.9593758371831063
2021-01-11,1.9181083191573165
2021-01-12,1.9227261124416684
2021-01-13,1.898200339157571
2021-01-14,1.8954638400662631
2021-01-15,1.874563905895538
2021-01-19,1.9198508153636296
2021-01-20,1.9225279542535387
2021-01-21,1.9054649956685443
2021-01-22,1.899339447363319
2021-01-25,1.8948071675805782
2021-01-26,1.834954175685437
2021-01-27,1.7581259259960642
2021-01-28,1.7812331297800976
2021-01-29,1.7399641084105708
2021-02-01,1.744846494020171
2021-02-02,1.7620318369442411
2021-02-03,1.7390950044856512
2021-02-04,1.7826705640044702
2021-02-05,1.7765626028830876
2021-02-08,1.789646519205779
2021-02-09,1.7974940630076592
2021-02-10,1.8303548120130793
2021-02-11,1.8833434020537052
2021-02-12,1.9229679489195153
2021-02-16,1.932438270820123
2021-02-17,1.8922021450774742
2021-02-18,1.8868686841750848
2021-02-19,1.905612233206295
2021-02-22,1.8327505060933618
2021-02-23,1.826363777880796
2021-02-24,1.826363777880796
2021-02-25,1.826363777880796
2021-02-26,1.826363777880796
2021-03-01,1.8314579208531714
2021-03-02,1.7958358532406675
2021-03-03,1.7785115100310465
2021-03-04,1.7311570458561927
2021-03-05,1.7251224269102634
2021-03-08,1.6807595543348155
2021-03-09,1.7341063429148287
2021-03-10,1.709276312850272
2021-03-11,1.7455103776664003
2021-03-12,1.7269237328647353
2021-03-15,1.7344383775479144
2021-03-16,1.7608421988231773
2021-03-17,1.782410015725913
2021-03-18,1.7368676212267007
2021-03-19,1.742445157334214
2021-03-22,1.7632852420292575
2021-03-23,1.7233742979444913
2021-03-24,1.7414208641666877
2021-03-25,1.7361444864598263
2021-03-26,1.7702493231979104
2021-03-29,1.7657989682325843
2021-03-30,1.759754127806254
2021-03-31,1.7890755625512882
2021-04-01,1.8269363631052329
2021-04-05,1.8602083695565876
2021-04-06,1.8332837766814798
2021-04-07,1.8412626494425375
2021-04-08,1.8530896986414418
2021-04-09,1.868081348099035
2021-04-12,1.8215462778127063
2021-04-13,1.8189280781067132
2021-04-14,1.8047345458550814
2021-04-15,1.8161719749901573
2021-04-16,1.8124514149532063
2021-04-19,1.7963279773026377
2021-04-20,1.7937610915096474
2021-04-21,1.7641054222249837
2021-04-22,1.7498004796451996
2021-04-23,1.7498004796451996
2021-04-26,1.7653232529058427
2021-04-27,1.7573444205304323
2021-04-28,1.7577538754776991
2021-04-29,1.750182942760599
2021-04-30,1.7345899684560155
2021-05-03,1.7380733733260194
2021-05-04,1.6925327068414289
2021-05-05,1.6920268804096628
2021-05-06,1.7054707957998025
2021-05-07,1.728159899215008
2021-05-10,1.6542824888053913
2021-05-11,1.6562615875887199
2021-05-12,1.6285659354470075
2021-05-13,1.6285659354470075
2021-05-14,1.6285659354470075
2021-05-17,1.629281092275511
2021-05-18,1.6182592478794209
2021-05-19,1.6203724278220806
2021-05-20,1.629666309723807
2021-05-21,1.6271688919444554
2021-05-24,1.6417138599268557
2021-05-25,1.645789998390792
2021-05-26,1.6436270906126706
2021-05-27,1.6515973199732388
2021-05-28,1.646134987247011
2021-06-01,1.6488908227100527
2021-06-02,1.6471319340517971
2021-06-03,1.640984559237284
2021-06-04,1.648663115744247
2021-06-07,1.645557867378686
2021-06-08,1.64303616670894
2021-06-09,1.6365365663099785
2021-06-10,1.6394062128417737
2021-06-11,1.6378480817993475
2021-06-14,1.6501618815707322
2021-06-15,1.6396001348391147
2021-06-16,1.6332328193313166
2021-06-17,1.6790407072345097
2021-06-18,1.6692992451938506
2021-06-21,1.6630365066972175
2021-06-22,1.6928140804944998
2021-06-23,1.7026414468286957
2021-06-24,1.7127880672728124
2021-06-25,1.7024529597220992
2021-06-28,1.764635601791538
2021-06-29,1.7616767013594021
2021-06-30,1.7551393691983943
2021-07-01,1.773399434989659
2021-07-02,1.786385433376227
2021-07-06,1.7935701422332921
2021-07-07,1.7756452632699857
2021-07-08,1.7479001351492345
2021-07-09,1.7608432597021801
2021-07-12,1.7855525058639712
2021-07-13,1.7721516516041955
2021-07-14,1.747668427801238
2021-07-15,1.7334321230786895
2021-07-16,1.7334321230786895
2021-07-19,1.7328767148517823
2021-07-20,1.7461684420927903
2021-07-21,1.753830442767625
2021-07-22,1.7680004556167777
2021-07-23,1.7757606161204569
2021-07-26,1.7728797578487603
2021-07-27,1.7655079697342586
2021-07-28,1.7675712274000097
2021-07-29,1.7702256910617713
2021-07-30,1.7740499349591452
2021-08-02,1.7698422372026912
2021-08-03,1.7739805842221177
2021-08-04,1.7822523016954679
2021-08-05,1.788547807424529
2021-08-06,1.7848128734250785
2021-08-09,1.784076344663911
2021-08-10,1.774267972366566
2021-08-11,1.7791767217307366
2021-08-12,1.7892327291736678
2021-08-13,1.7946795396052289
2021-08-16,1.7963247649520206
2021-08-17,1.7887865573025512
2021-08-18,1.7803602492437989
2021-08-19,1.7972767512679675
2021-08-20,1.805852307128915
2021-08-23,1.8189430010288472
2021-08-24,1.8205454350547172
2021-08-25,1.8232671037689927
2021-08-26,1.8200964736940675
2021-08-27,1.8245037517440452
2021-08-30,1.836739423755143
2021-08-31,1.8429675175354192
2021-09-01,1.8308794263141484
2021-09-02,1.8388647448370112
2021-09-03,1.8467952038987026
2021-09-07,1.838345325826256
2021-09-08,1.854535158165303
2021-09-09,1.8623792584137489
2021-09-10,1.8351704232908417
2021-09-13,1.816668944241459
2021-09-14,1.8361196955704058
2021-09-15,1.8427827940924326
2021-09-16,1.8766365228480328
2021-09-17,1.8698388909639454
2021-09-20,1.8613645886281205
2021-09-21,1.8818418721144459
2021-09-22,1.924718572423809
2021-09-23,1.9198684727962758
2021-09-24,1.9130305985962375
2021-09-27,1.8538592754150827
2021-09-28,1.815261793459554
2021-09-29,1.810513860946422
2021-09-30,1.8226827519089404
2021-10-01,1.825486639629687
2021-10-04,1.7848829139012068
2021-10-05,1.800001631154691
2021-10-06,1.804483589590604
2021-10-07,1.8006644780395673
2021-10-08,1.795046245059232
2021-10-11,1.8072280884887415
2021-10-12,1.8236257033886318
2021-10-13,1.8554533817276035
2021-10-14,1.8460941281244514
2021-10-15,1.854059940716377
2021-10-18,1.8699992425147605
2021-10-19,1.8692022830015818
2021-10-20,1.8715559439719702
2021-10-21,1.8745230403980595
2021-10-22,1.8756418987938777
2021-10-25,1.8672989494488865
2021-10-26,1.8643188625015121
2021-10-27,1.8486599299213573
2021-10-28,1.866032356612889
2021-10-29,1.8948629648446074
2021-11-01,1.8883140926392918
2021-11-02,1.8874405765916031
2021-11-03,1.8722007306449129
2021-11-04,1.8806636878603358
2021-11-05,1.9321314984339382
2021-11-08,1.9646112163854221
2021-11-09,1.8327318259111576
2021-11-10,1.8207861015073012
2021-11-11,1.8286923053358208
2021-11-12,1.8353338813842937
2021-11-15,1.8220871673294317
2021-11-16,1.8338877287079542
2021-11-17,1.7951724391123784
2021-11-18,1.8735213494731193
2021-11-19,1.9223795027202972
2021-11-22,1.9001503581060166
2021-11-23,1.8875137880342658
2021-11-24,1.9306476926641134
2021-11-26,1.8803977154535092
2021-11-29,1.9531118282586029
2021-11-30,1.9281785170584345
2021-12-01,1.8738444579589035
2021-12-02,1.9011476487771832
2021-12-03,1.8386154964430874
2021-12-06,1.840690715208756
2021-12-07,1.8741033326231933
2021-12-08,1.872894280918396
2021-12-09,1.8659700068218739
2021-12-10,1.860419503859656
2021-12-13,1.8289376741154724
2021-12-14,1.8118776693356733
2021-12-15,1.8654559627077814
2021-12-16,1.8110115068251145
2021-12-17,1.8264827377414892
2021-12-20,1.8491683908719874
2021-12-21,1.868693435784984
2021-12-22,1.8928470824929748
2021-12-23,1.903696794808488
2021-12-27,1.9348677327609503
2021-12-28,1.9116053784143032
2021-12-29,1.919956895094062
2021-12-30,1.9027953938156186
2021-12-31,1.903556970720515
2022-01-03,1.9111002566728783
2022-01-04,1.9165265544971106
2022-01-05,1.8519550119932475
2022-01-06,1.843248820896871
2022-01-07,1.8253873731267882
2022-01-10,1.8257456477686755
2022-01-11,1.831729946088962
2022-01-12,1.8361151376899072
2022-01-13,1.839485036389608
2022-01-14,1.8632222199798467
2022-01-18,1.8353633750734684
2022-01-19,1.8209977316939243
2022-01-20,1.8062193733607417
2022-01-21,1.805134346821323
2022-01-24,1.7990950404963293
2022-01-25,1.7990950404963293
2022-01-26,1.7990950404963293
2022-01-27,1.7990950404963293
2022-01-28,1.7990950404963293
2022-01-31,1.7990950404963293
2022-02-01,1.7990950404963293
2022-02-02,1.7990950404963293
2022-02-03,1.7990950404963293
2022-02-04,1.7990950404963293
2022-02-07,1.7990950404963293
2022-02-08,1.7990950404963293
2022-02-09,1.7990950404963293
2022-02-10,1.7990950404963293
2022-02-11,1.7990950404963293
2022-02-14,1.7990950404963293
2022-02-15,1.7990950404963293
2022-02-16,1.7990950404963293
2022-02-17,1.7990950404963293
2022-02-18,1.7990950404963293
2022-02-22,1.7990950404963293
2022-02-23,1.7990950404963293
2022-02-24,1.7990950404963293
2022-02-25,1.7990950404963293
2022-02-28,1.7990950404963293
2022-03-01,1.7990950404963293
2022-03-02,1.7990950404963293
2022-03-03,1.7990950404963293
2022-03-04,1.7990950404963293
2022-03-07,1.7990950404963293
2022-03-08,1.7990950404963293
2022-03-09,1.7990950404963293
2022-03-10,1.7990950404963293
2022-03-11,1.7990950404963293
2022-03-14,1.7990950404963293
2022-03-15,1.7990950404963293
2022-03-16,1.7990950404963293
2022-03-17,1.7990950404963293
2022-03-18,1.7990950404963293
2022-03-21,1.7990950404963293
2022-03-22,1.7990950404963293
2022-03-23,1.7990950404963293
2022-03-24,1.7990950404963293
2022-03-25,1.7990950404963293
2022-03-28,1.7990950404963293
2022-03-29,1.7990950404963293
2022-03-30,1.7990950404963293
2022-03-31,1.7990950404963293
2022-04-01,1.7990950404963293
2022-04-04,1.7990950404963293
2022-04-05,1.7990950404963293
2022-04-06,1.7990950404963293
2022-04-07,1.7990950404963293
2022-04-08,1.7990950404963293
2022-04-11,1.7990950404963293
2022-04-12,1.7990950404963293
2022-04-13,1.7990950404963293
2022-04-14,1.7990950404963293
2022-04-18,1.7990950404963293
2022-04-19,1.7990950404963293
2022-04-20,1.7990950404963293
2022-04-21,1.7990950404963293
2022-04-22,1.7990950404963293
2022-04-25,1.7990950404963293
2022-04-26,1.7990950404963293
2022-04-27,1.7990950404963293
2022-04-28,1.7990950404963293
2022-04-29,1.7990950404963293
2022-05-02,1.7990950404963293
2022-05-03,1.7990950404963293
2022-05-04,1.7990950404963293
2022-05-05,1.7990950404963293
2022-05-06,1.7990950404963293
2022-05-09,1.7990950404963293
2022-05-10,1.7990950404963293
2022-05-11,1.7990950404963293
2022-05-12,1.7990950404963293
2022-05-13,1.7990950404963293
2022-05-16,1.7990950404963293
2022-05-17,1.7990950404963293
2022-05-18,1.7990950404963293
2022-05-19,1.7990950404963293
2022-05-20,1.7990950404963293
2022-05-23,1.7990950404963293
2022-05-24,1.7990950404963293
2022-05-25,1.7990950404963293
2022-05-26,1.7990950404963293
2022-05-27,1.7990950404963293
2022-05-31,1.7990950404963293
2022-06-01,1.7990950404963293
2022-06-02,1.7990950404963293
2022-06-03,1.7990950404963293
2022-06-06,1.7990950404963293
2022-06-07,1.7990950404963293
2022-06-08,1.7990950404963293
2022-06-09,1.7990950404963293
2022-06-10,1.7990950404963293
2022-06-13,1.7990950404963293
2022-06-14,1.7990950404963293
2022-06-15,1.7990950404963293
2022-06-16,1.7990950404963293
2022-06-17,1.7990950404963293
2022-06-21,1.7990950404963293
2022-06-22,1.7990950404963293
2022-06-23,1.7990950404963293
2022-06-24,1.7990950404963293
2022-06-27,1.7990950404963293
2022-06-28,1.7990950404963293
2022-06-29,1.7990950404963293
2022-06-30,1.7990950404963293
2022-07-01,1.7990950404963293
2022-07-05,1.7990950404963293
2022-07-06,1.7990950404963293
2022-07-07,1.7990950404963293
2022-07-08,1.7990950404963293
2022-07-11,1.7990950404963293
2022-07-12,1.7990950404963293
2022-07-13,1.7990950404963293
2022-07-14,1.7990950404963293
2022-07-15,1.7990950404963293
2022-07-18,1.7990950404963293
2022-07-19,1.7990950404963293
2022-07-20,1.7990950404963293
2022-07-21,1.7990950404963293
2022-07-22,1.7990950404963293
2022-07-25,1.7990950404963293
2022-07-26,1.7990950404963293
2022-07-27,1.7990950404963293
2022-07-28,1.7990950404963293
2022-07-29,1.7990950404963293
2022-08-01,1.7990950404963293
2022-08-02,1.7990950404963293
2022-08-03,1.7990950404963293
2022-08-04,1.7990950404963293
2022-08-05,1.7990950404963293
2022-08-08,1.7990950404963293
2022-08-09,1.7990950404963293
2022-08-10,1.7990950404963293
2022-08-11,1.7990950404963293
2022-08-12,1.7990950404963293
2022-08-15,1.7990950404963293
2022-08-16,1.7990950404963293
2022-08-17,1.7990950404963293
2022-08-18,1.7990950404963293
2022-08-19,1.7990950404963293
2022-08-22,1.7990950404963293
2022-08-23,1.7990950404963293
2022-08-24,1.7990950404963293
2022-08-25,1.7990950404963293
2022-08-26,1.7990950404963293
2022-08-29,1.7990950404963293
2022-08-30,1.7990950404963293
2022-08-31,1.7990950404963293
2022-09-01,1.7990950404963293
2022-09-02,1.7990950404963293
2022-09-06,1.7990950404963293
2022-09-07,1.7990950404963293
2022-09-08,1.7990950404963293
2022-09-09,1.7990950404963293
2022-09-12,1.7990950404963293
2022-09-13,1.7990950404963293
2022-09-14,1.7990950404963293
2022-09-15,1.7990950404963293
2022-09-16,1.7990950404963293
2022-09-19,1.7990950404963293
2022-09-20,1.7990950404963293
2022-09-21,1.7990950404963293
2022-09-22,1.7990950404963293
2022-09-23,1.7990950404963293
2022-09-26,1.7990950404963293
2022-09-27,1.7990950404963293
2022-09-28,1.7990950404963293
2022-09-29,1.7990950404963293
2022-09-30,1.7990950404963293
2022-10-03,1.7990950404963293
2022-10-04,1.7990950404963293
2022-10-05,1.7990950404963293
2022-10-06,1.7990950404963293
2022-10-07,1.7990950404963293
2022-10-10,1.7990950404963293
2022-10-11,1.7990950404963293
2022-10-12,1.7990950404963293
2022-10-13,1.7990950404963293
2022-10-14,1.7990950404963293
2022-10-17,1.7990950404963293
2022-10-18,1.7990950404963293
2022-10-19,1.7990950404963293
2022-10-20,1.7990950404963293
2022-10-21,1.7990950404963293
2022-10-24,1.7990950404963293
2022-10-25,1.7990950404963293
2022-10-26,1.7990950404963293
2022-10-27,1.7990950404963293
2022-10-28,1.7990950404963293
2022-10-31,1.7990950404963293
2022-11-01,1.7990950404963293
2022-11-02,1.7990950404963293
2022-11-03,1.7990950404963293
2022-11-04,1.7990950404963293
2022-11-07,1.7990950404963293
2022-11-08,1.7990950404963293
2022-11-09,1.7990950404963293
2022-11-10,1.7990950404963293
2022-11-11,1.7990950404963293
2022-11-14,1.7990950404963293
2022-11-15,1.7990950404963293
2022-11-16,1.7990950404963293
2022-11-17,1.7990950404963293
2022-11-18,1.7990950404963293
2022-11-21,1.7990950404963293
2022-11-22,1.7990950404963293
2022-11-23,1.7990950404963293
2022-11-25,1.7990950404963293
2022-11-28,1.7990950404963293
2022-11-29,1.7990950404963293
2022-11-30,1.7990950404963293
2022-12-01,1.7990950404963293
2022-12-02,1.7990950404963293
2022-12-05,1.7990950404963293
2022-12-06,1.7990950404963293
2022-12-07,1.7990950404963293
2022-12-08,1.7990950404963293
2022-12-09,1.7990950404963293
2022-12-12,1.7990950404963293
2022-12-13,1.7990950404963293
2022-12-14,1.7990950404963293
2022-12-15,1.7990950404963293
2022-12-16,1.7990950404963293
2022-12-19,1.7990950404963293
2022-12-20,1.7990950404963293
2022-12-21,1.7990950404963293
2022-12-22,1.7990950404963293
2022-12-23,1.7990950404963293
2022-12-27,1.7990950404963293
2022-12-28,1.7990950404963293
2022-12-29,1.7990950404963293
2022-12-30,1.7990950404963293
2023-01-03,1.7990950404963293
2023-01-04,1.7990950404963293
2023-01-05,1.7990950404963293
2023-01-06,1.7990950404963293
2023-01-09,1.7990950404963293
2023-01-10,1.7990950404963293
2023-01-11,1.7990950404963293
2023-01-12,1.7990950404963293
2023-01-13,1.7990950404963293
2023-01-17,1.7990950404963293
2023-01-18,1.7990950404963293
2023-01-19,1.7990950404963293
2023-01-20,1.7990950404963293
2023-01-23,1.7990950404963293
2023-01-24,1.7990950404963293
2023-01-25,1.7990950404963293
2023-01-26,1.7990950404963293
2023-01-27,1.7990950404963293
2023-01-30,1.7990950404963293
2023-01-31,1.7990950404963293
2023-02-01,1.7990950404963293
2023-02-02,1.7990950404963293
2023-02-03,1.7990950404963293
2023-02-06,1.8090639905219619
2023-02-07,1.8827439318891277
2023-02-08,1.8446307386654814
2023-02-09,1.8237656422536563
2023-02-10,1.7592364506851854
2023-02-13,1.8073119564140647
2023-02-14,1.8587000850653075
2023-02-15,1.8385619930236579
2023-02-16,1.7828545180055602
2023-02-17,1.758430160435537
2023-02-21,1.7228807534208959
2023-02-22,1.7097155008396343
2023-02-23,1.709028348451587
2023-02-24,1.709028348451587
2023-02-27,1.7001610196783887
2023-02-28,1.70843981253528
2023-03-01,1.6953112878964451
2023-03-02,1.709189683576814
2023-03-03,1.7462344454499592
2023-03-06,1.739299425950745
2023-03-07,1.7335999152852277
2023-03-08,1.7508651737066179
2023-03-09,1.7292618853094168
2023-03-10,1.7153396846832882
2023-03-13,1.7091566004504983
2023-03-14,1.7289614000786293
2023-03-15,1.731940250332285
2023-03-16,1.7556447378889466
2023-03-17,1.7589665844948874
2023-03-20,1.759160456119865
2023-03-21,1.7838118410139332
2023-03-22,1.778267032689476
2023-03-23,1.8111043020513007
2023-03-24,1.8113233251534555
2023-03-27,1.7928153350629956
2023-03-28,1.7810705194640803
2023-03-29,1.8121032035295999
2023-03-30,1.8303275701790174
2023-03-31,1.8555875806449142
2023-04-03,1.8639831432008784
2023-04-04,1.8620428700029779
2023-04-05,1.837375492640367
2023-04-06,1.8606405238857828
2023-04-10,1.8644502946357764
2023-04-11,1.8530648991729137
2023-04-12,1.8415606208897675
2023-04-13,1.8690886339386452
2023-04-14,1.879460171593935
2023-04-17,1.8722246147854236
2023-04-18,1.8799368675051222
2023-04-19,1.8750100289021558
2023-04-20,1.8484389841537587
2023-04-21,1.835047492628846
2023-04-24,1.8317486147615298
2023-04-25,1.8058829610135572
2023-04-26,1.8098507047564267
2023-04-27,1.8723906419337273
2023-04-28,1.8761654043415827
2023-05-01,1.8793690312344369
2023-05-02,1.8648807703676347
2023-05-03,2.0490870753164923
2023-05-04,2.041559088154475
2023-05-05,2.0399719642712277
2023-05-08,2.0869889214303647
2023-05-09,2.079101485563017
2023-05-10,2.066574610818991
2023-05-11,2.0679225387991393
2023-05-12,2.0377168044032103
2023-05-15,2.0526812733862663
2023-05-16,2.0284550103988277
2023-05-17,2.046908243786336
2023-05-18,2.0577473246300344
2023-05-19,2.0444047731404327
2023-05-22,2.0809069081047475
2023-05-23,2.015844416616884
2023-05-24,2.031723949861883
2023-05-25,2.0183540002163043
2023-05-26,2.045353487080698
2023-05-30,2.055319040987025
2023-05-31,2.000944778851353
2023-06-01,2.0330001961462147
2023-06-02,1.991831403417701
2023-06-05,2.0596617789995766
2023-06-06,2.117783378244949
2023-06-07,2.1231999154694146
2023-06-08,2.189260428838738
2023-06-09,2.2224041032976043
2023-06-12,2.2242071973812774
2023-06-13,2.135846357449159
2023-06-14,2.109654915976044
2023-06-15,2.1394266433830786
2023-06-16,2.124279137581052
2023-06-20,2.1106658638889524
2023-06-21,2.0155068114210746
2023-06-22,2.020143466532351
2023-06-23,2.0246326498813936
2023-06-26,1.9753057803746785
2023-06-27,2.0131289830201524
2023-06-28,2.0307593505498227
2023-06-29,2.0409375802474465
2023-06-30,2.0805769569595265
2023-07-03,2.0830819033512595
2023-07-05,2.076844816800432
2023-07-06,2.0452432250033725
2023-07-07,2.021359251738696
2023-07-10,1.9905305991944382
2023-07-11,1.993207179225641
2023-07-12,2.0110160147873772
2023-07-13,2.0357011004431893
2023-07-14,2.029657744793615
2023-07-17,2.051516209466503
2023-07-18,2.1195464361503795
2023-07-19,2.0643672694329434
2023-07-20,1.9978139185082697
2023-07-21,1.9872660837006852
2023-07-24,1.9244464753239336
2023-07-25,1.9547097692554347
2023-07-26,1.9913185257328794
2023-07-27,1.9759157658528346
2023-07-28,2.118332828287084
2023-07-31,2.158898511201279
2023-08-01,2.1599090086090476
2023-08-02,2.150814724671803
2023-08-03,2.1316157236337707
2023-08-04,2.157551245568478
2023-08-07,2.139994580817051
2023-08-08,2.1063695486030767
2023-08-09,2.027063016448332
2023-08-10,2.2564635102794077
2023-08-11,2.2564635102794077
2023-08-14,2.2598636628996585
2023-08-15,2.251704420041546
2023-08-16,2.250629960010115
2023-08-17,2.234565533166954
2023-08-18,2.2268271636904466
2023-08-21,2.2258273818533176
2023-08-22,2.226165369958872
2023-08-23,2.233611834304602
2023-08-24,2.2183935023236696
2023-08-25,2.2255951220230292
2023-08-28,2.256122535576428
2023-08-29,2.272052236517665
2023-08-30,2.322806485286846
2023-08-31,2.3288383182911367
2023-09-01,2.3305354251786334
2023-09-05,2.305806030546128
2023-09-06,2.2930829022785177
2023-09-07,2.300825366363321
2023-09-08,2.2890284770866742
2023-09-11,2.294277177077708
2023-09-12,2.2742017383923843
2023-09-13,2.2456681307767195
2023-09-14,2.246743207021174
2023-09-15,2.2408773293364614
2023-09-18,2.2487699293753978
2023-09-19,2.195789338724067
2023-09-20,2.1877112312914515
2023-09-21,2.1734764223014755
2023-09-22,2.1734764223014755
2023-09-25,2.1654500411264896
2023-09-26,2.171757121749516
2023-09-27,2.180227136541485
2023-09-28,2.191381270415315
2023-09-29,2.1943462592484035
2023-10-02,2.19661963928298
2023-10-03,2.1606503622263684
2023-10-04,2.1764271142961977
2023-10-05,2.1798577126703624
2023-10-06,2.2229725709401706
2023-10-09,2.24845605420515
2023-10-10,2.2546799917034663
2023-10-11,2.29442928811075
2023-10-12,2.295138622660991
2023-10-13,2.287054203110321
2023-10-16,2.2992449475175833
2023-10-17,2.292470029425089
2023-10-18,2.2929453752754987
2023-10-19,2.2759183564722774
2023-10-20,2.2452817177145943
2023-10-23,2.2434382605016587
2023-10-24,2.261595285938167
2023-10-25,2.2297959163826
2023-10-26,2.2128777954507304
2023-10-27,2.214436849702994
2023-10-30,2.2255150916639628
2023-10-31,2.2337529266764213
2023-11-01,2.2438168389583097
2023-11-02,2.2602604400416606
2023-11-03,2.274674691430553
2023-11-06,2.270769032590854
2023-11-07,2.2912334833385124
2023-11-08,2.2912865374813585
2023-11-09,2.2801774774325447
2023-11-10,2.305702491657776
2023-11-13,2.3256724014584313
2023-11-14,2.3479528554849303
2023-11-15,2.343524282524422
2023-11-16,2.319715418036153
2023-11-17,2.3287199340564135
2023-11-20,2.3697180676528147
2023-11-21,2.286767415067815
2023-11-22,2.282569015623128
2023-11-24,2.25825843717289
2023-11-27,2.2495997732230677
2023-11-28,2.2924471612666295
2023-11-29,2.3406801696523147
2023-11-30,2.3525358419126525
2023-12-01,2.3649561930588505
2023-12-04,2.2901483042203945
2023-12-05,2.2890541077671953
2023-12-06,2.2516526698266643
2023-12-07,2.258516251962004
2023-12-08,2.2468780633863417
2023-12-11,2.2757675530167942
2023-12-12,2.2823294409249706
2023-12-13,2.3239259669552332
2023-12-14,2.360885341678115
2023-12-15,2.4142762995310862
2023-12-18,2.4196546414232416
2023-12-19,2.404347263143915
2023-12-20,2.366421064140538
2023-12-21,2.4004039361138454
2023-12-22,2.3927398463890284
2023-12-26,2.413673363921233
2023-12-27,2.4115447350685986
2023-12-28,2.402895024100305
2023-12-29,2.3802744026813762
2024-01-02,2.282380496126268
2024-01-03,2.25870408158225
2024-01-04,2.25870408158225
2024-01-05,2.25870408158225
2024-01-08,2.3475860829523523
2024-01-09,2.428364926739177
2024-01-10,2.4596489849440277
2024-01-11,2.466583679061083
2024-01-12,2.4495908788178866
2024-01-16,2.560773581240128
2024-01-17,2.5273563564428594
2024-01-18,2.5485825727509335
2024-01-19,2.581893855243437
2024-01-22,2.5619233408001403
2024-01-23,2.6149540733464876
2024-01-24,2.6643598407936864
2024-01-25,2.6499389569594354
2024-01-26,2.6459302392879116
2024-01-29,2.6993346409210646
2024-01-30,2.6972454541894866
2024-01-31,2.665058389565578
2024-02-01,2.685607999300342
2024-02-02,2.7384921269006774
2024-02-05,2.7019169043225792
2024-02-06,2.6534337128766508
2024-02-07,2.7465904797389005
2024-02-08,2.7585841593649834
2024-02-09,2.810029513168237
2024-02-12,2.769553196389542
2024-02-13,2.7175007135185765
2024-02-14,2.77023750026539
2024-02-15,2.7559484719535527
2024-02-16,2.734662270339319
2024-02-20,2.6744127858849938
2024-02-21,2.6641010615131253
2024-02-22,2.7935124100436783
2024-02-23,2.7541808312638514
2024-02-26,2.7398556979713877
2024-02-27,2.7477159083464553
2024-02-28,2.7189190887889723
2024-02-29,2.8618808270775284
2024-03-01,2.9913970266724377
2024-03-04,3.062849571270446
2024-03-05,3.0738631924955957
2024-03-06,3.161934890329679
2024-03-07,3.2364547208672167
2024-03-08,3.2103094215650074
2024-03-11,3.139508795169058
2024-03-12,3.167113413765106
2024-03-13,3.2177217836883374
2024-03-14,3.2202777235570728
2024-03-15,3.2187441986369745
2024-03-18,3.3127272056942263
2024-03-19,3.3164380286085544
2024-03-20,3.407346769868896
2024-03-21,3.4617523402720662
2024-03-22,3.495054347582326
2024-03-25,3.5427328539937455
2024-03-26,3.460789212561801
2024-03-27,3.318870415973252
2024-03-28,3.3207528439302223
2024-04-01,3.365496244692804
2024-04-02,3.3045512477910117
2024-04-03,3.3051869896531
2024-04-04,3.1562345344114737
2024-04-05,3.1771958403955125
2024-04-08,3.129577139601442
2024-04-09,3.0421034002203933
2024-04-10,3.0421034002203933
2024-04-11,3.0421034002203933
2024-04-12,3.0421034002203933
2024-04-15,2.998430409726897
2024-04-16,3.0099960104152363
2024-04-17,2.96200404374205
2024-04-18,2.914066941102272
2024-04-19,2.8840374416203685
2024-04-22,2.903761023162948
2024-04-23,2.9470000248368833
2024-04-24,2.9372709025126404
2024-04-25,2.917674335931513
2024-04-26,3.037708806610402
2024-04-29,3.0024111863656153
2024-04-30,2.9645243269633217
2024-05-01,2.956033099102063
2024-05-02,2.9839620502180715
2024-05-03,3.0105610029633123
2024-05-06,3.075194481001644
2024-05-07,3.0508759570518635
2024-05-08,3.0168671004057526
2024-05-09,3.098122635051465
2024-05-10,3.135016044173255
2024-05-13,3.1431972473559027
2024-05-14,3.1293775848344243
2024-05-15,3.190989732265333
2024-05-16,3.1779238264939944
2024-05-17,3.1386163440198924
2024-05-20,3.1987394681409658
2024-05-21,3.2031380864980843
2024-05-22,3.1548563942767
2024-05-23,3.292409951558922
2024-05-24,3.3374826380210783
2024-05-28,3.4335207803140033
2024-05-29,3.4149450754799853
2024-05-30,3.3233532727773043
2024-05-31,3.29917722162963
2024-06-03,3.312245954232126
2024-06-04,3.312054372307292
2024-06-05,3.439529196305566
2024-06-06,3.4098542221955945
2024-06-07,3.3820386720330236
2024-06-10,3.3647440673550717
2024-06-11,3.2348770452865656
2024-06-12,3.297165748433572
2024-06-13,3.3611967890522196
2024-06-14,3.3941563479458217
2024-06-17,3.404815357090034
2024-06-18,3.4499491345252
2024-06-20,3.34954537309506
2024-06-21,3.2871428113593115
2024-06-24,3.203725304479247
2024-06-25,3.3098470843893435
2024-06-26,3.3139696302809662
2024-06-27,3.281920497876021
2024-06-28,3.275936193084582
2024-07-01,3.315162063786545
2024-07-02,3.2633912823266424
2024-07-03,3.347023855291373
2024-07-05,3.325039306299672
2024-07-08,3.360922080438917
2024-07-09,3.382739193475158
2024-07-10,3.381235499317971
2024-07-11,3.2643248452537845
2024-07-12,3.2925666819913353
2024-07-15,3.3075710679025137
2024-07-16,3.244645196064928
2024-07-17,3.170956291521573
2024-07-18,3.170956291521573
2024-07-19,3.170956291521573
2024-07-22,3.181774089506258
2024-07-23,3.1747121425870306
2024-07-24,3.011981008934042
2024-07-25,2.9933476798021617
2024-07-26,2.9933476798021617
2024-07-29,2.9767975103268003
2024-07-30,2.959243649026807
2024-07-31,2.971548803049028
2024-08-01,2.9564092528575103
2024-08-02,2.903345617535699
2024-08-05,2.86436550632659
2024-08-06,2.8666842229358775
2024-08-07,2.837155585944062
2024-08-08,2.8521522853983376
2024-08-09,2.8339487031207407
2024-08-12,2.8079569529584045
2024-08-13,2.8409481115036614
2024-08-14,2.85674321237732
2024-08-15,2.8637818137724427
2024-08-16,2.8786405001635513
2024-08-19,2.8947960032501907
2024-08-20,2.8934101699414008
2024-08-21,2.9021465641380857
2024-08-22,2.894889114575685
2024-08-23,2.8993444803102917
2024-08-26,2.8798281464855107
2024-08-27,2.8799713259953026
2024-08-28,2.883443716827596
2024-08-29,2.906826630856228
2024-08-30,2.913823383970443
2024-09-03,2.8977089387670945
2024-09-04,2.867227251259604
2024-09-05,2.863831754994192
2024-09-06,2.863360183529983
2024-09-09,2.8769319383806957
2024-09-10,2.910753994588843
2024-09-11,2.9191824963541233
2024-09-12,2.9363044080904386
2024-09-13,2.927436423803697
2024-09-16,2.930667335368235
2024-09-17,2.9214048506966868
2024-09-18,2.9124906042443586
2024-09-19,2.9220650558214984
2024-09-20,2.908770661520898
2024-09-23,2.9118502413633367
2024-09-24,2.911058545336263
2024-09-25,2.891820659287622
2024-09-26,2.878185494783934
2024-09-27,2.883611898212643
2024-09-30,2.9201237984993185
2024-10-01,2.922204795082758
2024-10-02,2.9378369446576924
2024-10-03,2.9763295018330207
2024-10-04,3.03011771359434
2024-10-07,3.0318687356696183
2024-10-08,3.0794874867746542
2024-10-09,3.0870991808729302
2024-10-10,3.0893627844862546
2024-10-11,3.1164152069248026
2024-10-14,3.0981739399167596
2024-10-15,3.088681928624617
2024-10-16,3.1092774068274136
2024-10-17,3.094197614412533
2024-10-18,3.1131692017789447
2024-10-21,3.1842941937773626
2024-10-22,3.202096698012905
2024-10-23,3.193243072492916
2024-10-24,3.207999140265551
2024-10-25,3.2100934990805836
2024-10-28,3.2049565020907087
2024-10-29,3.1970566717820725
2024-10-30,3.154845556500095
2024-10-31,3.080358438590229
2024-11-01,3.0869272746220187
2024-11-04,3.077332951671923
2024-11-05,3.1099043774725184
2024-11-06,3.1399736142114043
2024-11-07,3.5073976682691077
2024-11-08,3.5073976682691077
2024-11-11,3.529255489817838
2024-11-12,3.4089526591621584
2024-11-13,3.4426040241444458
2024-11-14,3.3017534430480806
2024-11-15,3.5422534953559075
2024-11-18,3.501980483217893
2024-11-19,3.5889074656708893
2024-11-20,3.54372219794313
2024-11-21,3.509454733179189
2024-11-22,3.6620821635825713
2024-11-25,3.600085826815918
2024-11-26,3.630051115266467
2024-11-27,3.612049711771885
2024-11-29,3.704224743399135
2024-12-02,3.7445164538733953
2024-12-03,3.8490810300683953
2024-12-04,3.8496765466777414
2024-12-05,3.9671282999654
2024-12-06,4.1974045186295355
2024-12-09,4.170461027591945
2024-12-10,4.227178889340369
2024-12-11,4.347603254356245
2024-12-12,4.3138257733699295
2024-12-13,4.405637986903272
2024-12-16,4.530138394784496
2024-12-17,4.489260141547716
2024-12-18,4.322109824988322
2024-12-19,4.360294319696114
2024-12-20,4.510136924287833
2024-12-23,4.537028145212049
2024-12-24,4.563280065155585
2024-12-26,4.589691638420925
2024-12-27,4.427847797486477
2024-12-30,4.377109355124066
2024-12-31,4.2567801515346275
2025-01-02,4.365587193310848
2025-01-03,4.554331116356853
2025-01-06,4.474183271056116
2025-01-07,4.096100291869516
2025-01-08,4.096100291869516
2025-01-10,4.096100291869516
2025-01-13,4.1495717699001835
2025-01-14,4.147282354790466
2025-01-15,4.169957779796265
2025-01-16,4.190967461743451
2025-01-17,4.293993250748157
2025-01-21,4.298392520535675
2025-01-22,4.314260165520929
2025-01-23,4.319099113428512
2025-01-24,4.321021702031837
2025-01-27,4.178586377248769
2025-01-28,4.178586377248769
2025-01-29,4.178586377248769
2025-01-30,4.178586377248769
2025-01-31,4.178586377248769
2025-02-03,4.260971630368191
2025-02-04,4.566693445583232
2025-02-05,4.499058940670372
2025-02-06,4.5520293834563
2025-02-07,4.537519982132463
2025-02-10,4.566429035243592
2025-02-11,4.507783336479909
2025-02-12,4.568023641559103
2025-02-13,4.938638504570853
2025-02-14,4.8764085482144335
2025-02-18,5.173064760783711
2025-02-19,5.354988545276951
2025-02-20,5.3353111918227185
2025-02-21,5.248361298639772
2025-02-24,5.149070279773847
2025-02-25,5.042774713234398
2025-02-26,4.9962223994456405
2025-02-27,4.9962223994456405
2025-02-28,4.9962223994456405
2025-03-03,5.001400014212814
2025-03-04,4.951750579595186
2025-03-05,4.944139708006237
2025-03-06,4.950662639934789
2025-03-07,4.965557057991468
2025-03-10,4.961099603857865
2025-03-11,4.961099603857865
2025-03-12,4.961099603857865
2025-03-13,4.961099603857865
2025-03-14,4.961099603857865
2025-03-17,4.961099603857865
2025-03-18,4.961099603857865
2025-03-19,4.961099603857865
2025-03-20,4.961099603857865
2025-03-21,4.961099603857865
2025-03-24,4.961099603857865
2025-03-25,4.961099603857865
2025-03-26,4.961099603857865
2025-03-27,4.961099603857865
2025-03-28,4.961099603857865
2025-03-31,4.961099603857865
2025-04-01,4.961099603857865
2025-04-02,4.961099603857865
2025-04-03,4.961099603857865
2025-04-04,4.961099603857865
2025-04-07,4.961099603857865
2025-04-08,4.961099603857865
2025-04-09,4.961099603857865
2025-04-10,4.961099603857865
2025-04-11,4.961099603857865
2025-04-14,4.961099603857865
2025-04-15,4.961099603857865
2025-04-16,4.961099603857865
2025-04-17,4.961099603857865
2025-04-21,4.961099603857865
2025-04-22,4.961099603857865
2025-04-23,4.961099603857865
2025-04-24,4.961099603857865
2025-04-25,4.961099603857865
2025-04-28,4.961099603857865
2025-04-29,4.961099603857865
2025-04-30,4.961099603857865
2025-05-01,4.961099603857865
2025-05-02,4.961099603857865
2025-05-05,4.961099603857865
2025-05-06,4.961099603857865
2025-05-07,4.961099603857865
2025-05-08,4.961099603857865
2025-05-09,4.961099603857865
2025-05-12,4.961099603857865
2025-05-13,4.961099603857865
2025-05-14,4.961099603857865
2025-05-15,4.961099603857865
2025-05-16,4.961099603857865
2025-05-19,4.996911935447223
2025-05-20,4.98302189114113
2025-05-21,4.905303632123918
2025-05-22,4.943207659614141
2025-05-23,4.868898780318845
2025-05-27,4.9161019316451195
2025-05-28,4.919164020941443
2025-05-29,4.885493294513617
2025-05-30,5.09080063422299
2025-06-02,5.125021287481269
2025-06-03,5.1559949344655465
2025-06-04,5.0658761646974
2025-06-05,4.872485953315694
2025-06-06,4.8878307199232065
2025-06-09,4.870890906275685
2025-06-10,4.885866600558659
2025-06-11,4.9560188867642125
2025-06-12,4.915477296679514
2025-06-13,4.865298985323004
2025-06-16,4.981271661448446
2025-06-17,4.8575749626963844
2025-06-18,4.8495798845705185
2025-06-20,4.796673083055656
2025-06-23,4.903424360961859
2025-06-24,4.9555993179709565
2025-06-25,4.973077502186397
2025-06-26,5.012700904748742
2025-06-27,4.811948750117127
2025-06-30,4.72816438768367
2025-07-01,4.605957747437163
2025-07-02,4.562262242001809
2025-07-03,4.599417619328446
2025-07-07,4.576264169585299
2025-07-08,4.577554027502385
2025-07-09,4.618061337605036
2025-07-10,4.47624503819922
2025-07-11,4.402548712428419
2025-07-14,4.407070592782105
2025-07-15,4.601370611580302
2025-07-16,4.7295464117770125
2025-07-17,4.8072533428352
2025-07-18,4.724343479221873
2025-07-21,4.705822365948675
2025-07-22,4.618977804687718
2025-07-23,4.714230894769294
2025-07-24,4.774716077433215
2025-07-25,4.8615283902888855
2025-07-28,4.993336921585811
2025-07-29,5.071511297715837
2025-07-30,5.108230704199594
2025-07-31,5.091819529310441
2025-08-01,4.957479391383567
2025-08-04,4.991267728159109
2025-08-05,4.914863135256686
2025-08-06,4.429728157854729
2025-08-07,4.429728157854729
2025-08-08,4.429728157854729
2025-08-11,4.4110835393179455
2025-08-12,4.472307033495503
2025-08-13,4.607265420350457
2025-08-14,4.476560528220693
2025-08-15,4.390615495237798
2025-08-18,4.396865119711038
2025-08-19,4.2152397625200955
2025-08-20,4.16885914462442
2025-08-21,4.140489191604659
2025-08-22,4.273019153371054
2025-08-25,4.1924937333753
2025-08-26,4.239658435216581
2025-08-27,4.200165614491402
2025-08-28,4.219052619208062
2025-08-29,4.165680289574528
2025-09-02,4.209423036905454
2025-09-03,4.20022179556104
2025-09-04,4.268517162643491
2025-09-05,4.29025342935218
2025-09-08,4.28081965693295
2025-09-09,4.2858829164281325
2025-09-10,4.289152043093933
2025-09-11,4.301366902327066
2025-09-12,4.282100879496323
2025-09-15,4.329397537312198
2025-09-16,4.302054423556694
2025-09-17,4.253561293530742
2025-09-18,4.285803914385339
2025-09-19,4.294853147363023
2025-09-22,4.31212264575835
2025-09-23,4.283006148708614
2025-09-24,4.243839731862787
2025-09-25,4.23042817325932
2025-09-26,4.32980501747108
2025-09-29,4.46838214228036
2025-09-30,4.432119396343472
2025-10-01,4.530062059815315
2025-10-02,4.523318492585402
2025-10-03,4.494629193482485
2025-10-06,4.4333241427223555
2025-10-07,4.408018782952794
2025-10-08,4.548879236955818
2025-10-09,4.522966227038005
2025-10-10,4.312069674788896
2025-10-13,4.492631028775747
2025-10-14,4.284748541892085
2025-10-15,4.340965247577406
2025-10-16,4.462959895229013
2025-10-17,4.4612319800373506
2025-10-20,4.548641946175753
2025-10-21,4.474245622728925
2025-10-22,4.359986576834286
2025-10-23,4.497782503144755
2025-10-24,4.801084441971367
2025-10-27,4.874322280125542
2025-10-28,4.880221744356649
2025-10-29,4.991518392606059
2025-10-30,4.875861334950171
2025-10-31,4.884625323388235
2025-11-03,5.042330989650193
2025-11-04,4.811201122644512
2025-11-05,4.867764171184966
2025-11-06,4.733979923834221
2025-11-07,4.733979923834221
2025-11-10,4.77365782251975
2025-11-11,4.722909381594958
2025-11-12,4.684167298754506
2025-11-13,4.471009016793783
2025-11-14,4.456873291399482
2025-11-17,4.295407924467608
2025-11-18,4.284071880290648
2025-11-19,4.279707015182682
2025-11-20,4.2269363646487585
2025-11-21,4.2269363646487585
2025-11-24,4.255581038818504
2025-11-25,4.308103443955428
2025-11-26,4.292477113630968
2025-11-28,4.287104747280166
2025-12-01,4.227260829608873
2025-12-02,4.219094963908791
2025-12-03,4.206550862554342
2025-12-04,4.198512729610879
2025-12-05,4.204728288744917
2025-12-08,4.167050406057745
2025-12-09,4.1784697994500535
2025-12-10,4.189107639768938
2025-12-11,4.162666028245328
2025-12-12,4.151994351764166
2025-12-15,4.139832441679891
2025-12-16,4.124633817156743
2025-12-17,4.065830769937053
2025-12-18,4.086472871666677
2025-12-19,4.097958274940248
2025-12-22,4.104054448751322
2025-12-23,4.106489079557733
2025-12-24,4.186097371729787
2025-12-26,4.17645875844715
2025-12-29,4.2531452908951435
2025-12-30,4.228040217415728
2025-12-31,4.162549234871683
2026-01-02,4.432765140576797
2026-01-05,4.469409558993375
2026-01-06,4.567726562056492
2026-01-07,4.552688843985459
2026-01-08,4.511010032797935
2026-01-09,4.5881318146248535
2026-01-12,4.6575021197914
2026-01-13,4.58421750322996
2026-01-14,4.51309158314021
2026-01-15,4.673117312094142
2026-01-16,4.762718368413298
2026-01-20,4.722223960332477
2026-01-21,4.8133972345824105
2026-01-22,4.706274357984268
2026-01-23,4.657773795114409
2026-01-26,4.672294260340696
2026-01-27,4.962692018115434
2026-01-28,5.1223828869739005
2026-01-29,5.216616397208165
2026-01-30,4.9369807611305925
2026-02-02,5.115167839239545
2026-02-03,4.9282136262923135
2026-02-04,4.7361671741090525
2026-02-05,4.7361671741090525
2026-02-06,4.7361671741090525
2026-02-09,4.7315821411615815
2026-02-10,4.711207389191962
2026-02-11,4.85674836584154
2026-02-12,4.848987726375774
2026-02-13,4.858713382705905
2026-02-17,4.819248408496596
2026-02-18,4.8724097989199295
2026-02-19,4.833011135289968
2026-02-20,4.875654365963772
2026-02-23,4.853956229211576
2026-02-24,4.809912535348724
2026-02-25,4.847037394358159
2026-02-26,4.798439459803324
2026-02-27,4.766042018504621
2026-03-02,4.785047627293561
2026-03-03,4.63514301602414
2026-03-04,4.655926335850152
2026-03-05,4.619684605910433
2026-03-06,4.549758519320573
2026-03-09,4.629955167622333
2026-03-10,4.625588380881336
2026-03-11,4.657545006152079
2026-03-12,4.529884457805986
2026-03-13,4.506035936153598
2026-03-16,4.464227821247936
2026-03-17,4.508680232920874
2026-03-18,4.420564759786895
2026-03-19,4.3764618264063655
2026-03-20,4.322482562836152
2026-03-23,4.33069183811251
2026-03-24,4.33069183811251
2026-03-25,4.33069183811251
2026-03-26,4.33069183811251
2026-03-27,4.33069183811251
2026-03-30,4.33069183811251
2026-03-31,4.33069183811251
2026-04-01,4.33069183811251
2026-04-02,4.33069183811251
2026-04-06,4.33069183811251
2026-04-07,4.33069183811251
2026-04-08,4.33069183811251
2026-04-09,4.33069183811251
2026-04-10,4.33069183811251
2026-04-13,4.457321633932159
2026-04-14,4.451763689759491
2026-04-15,4.503943199665603
2026-04-16,4.607423543035303
2026-04-17,4.712717087232968
2026-04-20,4.7509920137306345
2026-04-21,4.828304981051669
2026-04-22,4.893958071399993
2026-04-23,5.083823267519209
2026-04-24,5.532415177462886
2026-04-27,5.515787435401906
2026-04-28,5.282399496389784
2026-04-29,5.383388654454908
2026-04-30,5.383388654454908
2026-05-01,5.383388654454908
2026-05-04,5.21356357533999
2026-05-05,5.398852566420603
2026-05-06,5.948180724104374
2026-05-07,5.654118050806096
2026-05-08,5.903346873300046
2026-05-11,5.882997962056381
2026-05-12,5.463873213644851
2026-05-13,5.682650597144535
2026-05-14,5.75796216470477
2026-05-15,5.665408697887785
2026-05-18,5.483323377993273
2026-05-19,5.43827202530264
2026-05-20,5.655933591487402
2026-05-21,5.668981664543185
2026-05-22,5.785310275659659
2026-05-26,6.053459930693748
2026-05-27,5.8526817058572025
