Date,Value
2018-01-02,1.0
2018-01-03,1.0
2018-01-04,1.0
2018-01-05,1.0
2018-01-08,1.0243276923826676
2018-01-09,1.022997489136054
2018-01-10,1.0227144982435417
2018-01-11,1.0309463920954007
2018-01-12,1.0410748266118746
2018-01-16,1.0380035294433845
2018-01-17,1.0676603636065272
2018-01-18,1.0571724725884115
2018-01-19,1.0643337606453278
2018-01-22,1.086961926255087
2018-01-23,1.0938499022775274
2018-01-24,1.0611632623110587
2018-01-25,1.06795954342993
2018-01-26,1.1011790791445746
2018-01-29,1.1336714086793802
2018-01-30,1.1167631827083104
2018-01-31,1.101778067122561
2018-02-01,1.079164560396062
2018-02-02,1.067831863151575
2018-02-05,1.0341164889246266
2018-02-06,1.0341164889246266
2018-02-07,1.0341164889246266
2018-02-08,1.0341164889246266
2018-02-09,1.0341164889246266
2018-02-12,1.0498026143484205
2018-02-13,1.046188836845114
2018-02-14,1.0782273218497043
2018-02-15,1.0936766604881363
2018-02-16,1.0910016738895219
2018-02-20,1.1020403598007489
2018-02-21,1.083877584794278
2018-02-22,1.0835879345713337
2018-02-23,1.0974881652706259
2018-02-26,1.1043960836818647
2018-02-27,1.1036706124764322
2018-02-28,1.10561333871513
2018-03-01,1.1017466713994937
2018-03-02,1.1124671112074989
2018-03-05,1.1320963384803329
2018-03-06,1.147230086984344
2018-03-07,1.1476171715450967
2018-03-08,1.1511726312137216
2018-03-09,1.169647851224061
2018-03-12,1.157133176038251
2018-03-13,1.1456420191082426
2018-03-14,1.1534056735862404
2018-03-15,1.1553662740555906
2018-03-16,1.1522609753163742
2018-03-19,1.1438102455559411
2018-03-20,1.1636367547806565
2018-03-21,1.1548119717591137
2018-03-22,1.1365019970950339
2018-03-23,1.1221366857907897
2018-03-26,1.1203635724379974
2018-03-27,1.1081288912910752
2018-03-28,1.1023426671267262
2018-03-29,1.1023426671267262
2018-04-02,1.087850021856285
2018-04-03,1.0987528918716056
2018-04-04,1.1074902059444882
2018-04-05,1.1205341071332853
2018-04-06,1.1081367567660325
2018-04-09,1.1031229494131007
2018-04-10,1.1106086583860924
2018-04-11,1.109962602408431
2018-04-12,1.1239441316866334
2018-04-13,1.1146117471368577
2018-04-16,1.1200022432419323
2018-04-17,1.1304905148386213
2018-04-18,1.1317366056352212
2018-04-19,1.12363670769906
2018-04-20,1.1200345088471189
2018-04-23,1.118048220077101
2018-04-24,1.1183829147263802
2018-04-25,1.116907067005736
2018-04-26,1.1306498861944279
2018-04-27,1.1270448642672077
2018-04-30,1.1211881864336264
2018-05-01,1.132770509182249
2018-05-02,1.1312679974240036
2018-05-03,1.1261005761022846
2018-05-04,1.1333611809851256
2018-05-07,1.141180225928896
2018-05-08,1.1477811573216452
2018-05-09,1.1589542613734967
2018-05-10,1.1612835077858858
2018-05-11,1.1541389248704197
2018-05-14,1.1519879115446434
2018-05-15,1.1500099940132547
2018-05-16,1.1501036456093368
2018-05-17,1.1513828212580939
2018-05-18,1.147007469644381
2018-05-21,1.158984829108513
2018-05-22,1.156052659735091
2018-05-23,1.1642472691452752
2018-05-24,1.1650425266418962
2018-05-25,1.1689568779487511
2018-05-29,1.166108186495677
2018-05-30,1.1708257847154135
2018-05-31,1.1658322475007659
2018-06-01,1.1775979156972554
2018-06-04,1.1745728070626904
2018-06-05,1.1664863840775526
2018-06-06,1.1678199370716444
2018-06-07,1.1551488015085547
2018-06-08,1.150698102188411
2018-06-11,1.1675032250883244
2018-06-12,1.1736459151767358
2018-06-13,1.1925298966899298
2018-06-14,1.1926199431206408
2018-06-15,1.193714573576618
2018-06-18,1.2170966374219034
2018-06-19,1.2012277928330914
2018-06-20,1.1948046873551132
2018-06-21,1.1619334835406914
2018-06-22,1.1676009486267729
2018-06-25,1.110593231071353
2018-06-26,1.1212920148672763
2018-06-27,1.1148340012709945
2018-06-28,1.1184433106682221
2018-06-29,1.1155802631746834
2018-07-02,1.1011343008073537
2018-07-03,1.083226398199999
2018-07-05,1.0888736050674113
2018-07-06,1.0959487361716223
2018-07-09,1.0996906973911702
2018-07-10,1.0953188605244775
2018-07-11,1.0882685871518385
2018-07-12,1.094119649907888
2018-07-13,1.0718723675851072
2018-07-16,1.0854354441030403
2018-07-17,1.0764510592821883
2018-07-18,1.0757926616827893
2018-07-19,1.0711839412752464
2018-07-20,1.0642709548463087
2018-07-23,1.0548863065432257
2018-07-24,1.0250692919109752
2018-07-25,1.0371755219326324
2018-07-26,1.1111330445068335
2018-07-27,1.1177855984042193
2018-07-30,1.1178058203244057
2018-07-31,1.0814499868737524
2018-08-01,1.090890722149764
2018-08-02,1.0894267528919788
2018-08-03,1.079550977265745
2018-08-06,1.105774244645744
2018-08-07,1.1116910359711294
2018-08-08,1.0866774389848506
2018-08-09,1.0708762733287778
2018-08-10,1.0695594781299795
2018-08-13,1.086002178007926
2018-08-14,1.1040724000655417
2018-08-15,1.0897961937408347
2018-08-16,1.0803187053007772
2018-08-17,1.0995154015669923
2018-08-20,1.1081608368583875
2018-08-21,1.1219175597463755
2018-08-22,1.148494618014181
2018-08-23,1.2067258995181538
2018-08-24,1.2760801963676336
2018-08-27,1.3223052548431422
2018-08-28,1.3225991992381936
2018-08-29,1.3278836293659846
2018-08-30,1.3057593983071218
2018-08-31,1.3272424910172913
2018-09-04,1.434090117770336
2018-09-05,1.4377467749117243
2018-09-06,1.461496909790846
2018-09-07,1.4552935214206184
2018-09-10,1.5612046534387156
2018-09-11,1.578304457556233
2018-09-12,1.6281524908566056
2018-09-13,1.566074330362476
2018-09-14,1.6452877737504332
2018-09-17,1.6329000082819438
2018-09-18,1.6301614104098539
2018-09-19,1.602578930604035
2018-09-20,1.5959089668391329
2018-09-21,1.5845437106578437
2018-09-24,1.6434684113625853
2018-09-25,1.6543480709591267
2018-09-26,1.6372650773489914
2018-09-27,1.6297820173507582
2018-09-28,1.581996637912458
2018-10-01,1.5808026308885417
2018-10-02,1.4744482834668844
2018-10-03,1.4406995634230475
2018-10-04,1.4406995634230475
2018-10-05,1.4406995634230475
2018-10-08,1.4402216750785464
2018-10-09,1.4450210551997555
2018-10-10,1.4181222130562983
2018-10-11,1.4181222130562983
2018-10-12,1.4181222130562983
2018-10-15,1.4205121721031775
2018-10-16,1.4271788916719785
2018-10-17,1.435292171374318
2018-10-18,1.43239907952354
2018-10-19,1.432524821648062
2018-10-22,1.4332975987960834
2018-10-23,1.4351627317144136
2018-10-24,1.4295616515657137
2018-10-25,1.4411894843698954
2018-10-26,1.4347078683539507
2018-10-29,1.4406439539129656
2018-10-30,1.4406439539129656
2018-10-31,1.4406439539129656
2018-11-01,1.4406439539129656
2018-11-02,1.4406439539129656
2018-11-05,1.4406439539129656
2018-11-06,1.4406439539129656
2018-11-07,1.4406439539129656
2018-11-08,1.4406439539129656
2018-11-09,1.4406439539129656
2018-11-12,1.4406439539129656
2018-11-13,1.4406439539129656
2018-11-14,1.4406439539129656
2018-11-15,1.4406439539129656
2018-11-16,1.4406439539129656
2018-11-19,1.4406439539129656
2018-11-20,1.4406439539129656
2018-11-21,1.4406439539129656
2018-11-23,1.4406439539129656
2018-11-26,1.4406439539129656
2018-11-27,1.4406439539129656
2018-11-28,1.4406439539129656
2018-11-29,1.4406439539129656
2018-11-30,1.4406439539129656
2018-12-03,1.4406439539129656
2018-12-04,1.4406439539129656
2018-12-06,1.4406439539129656
2018-12-07,1.4406439539129656
2018-12-10,1.4406439539129656
2018-12-11,1.4406439539129656
2018-12-12,1.4406439539129656
2018-12-13,1.4406439539129656
2018-12-14,1.4406439539129656
2018-12-17,1.4406439539129656
2018-12-18,1.4406439539129656
2018-12-19,1.4406439539129656
2018-12-20,1.4406439539129656
2018-12-21,1.4406439539129656
2018-12-24,1.4406439539129656
2018-12-26,1.4406439539129656
2018-12-27,1.4406439539129656
2018-12-28,1.4406439539129656
2018-12-31,1.4406439539129656
2019-01-02,1.4406439539129656
2019-01-03,1.4406439539129656
2019-01-04,1.4406439539129656
2019-01-07,1.4406439539129656
2019-01-08,1.4406439539129656
2019-01-09,1.4406439539129656
2019-01-10,1.4406439539129656
2019-01-11,1.4406439539129656
2019-01-14,1.4406439539129656
2019-01-15,1.4406439539129656
2019-01-16,1.4406439539129656
2019-01-17,1.4406439539129656
2019-01-18,1.4406439539129656
2019-01-22,1.4406439539129656
2019-01-23,1.4406439539129656
2019-01-24,1.4406439539129656
2019-01-25,1.4406439539129656
2019-01-28,1.4406439539129656
2019-01-29,1.4406439539129656
2019-01-30,1.4406439539129656
2019-01-31,1.4406439539129656
2019-02-01,1.4406439539129656
2019-02-04,1.4406439539129656
2019-02-05,1.4406439539129656
2019-02-06,1.4406439539129656
2019-02-07,1.4406439539129656
2019-02-08,1.4406439539129656
2019-02-11,1.4406439539129656
2019-02-12,1.4406439539129656
2019-02-13,1.4406439539129656
2019-02-14,1.4406439539129656
2019-02-15,1.4406439539129656
2019-02-19,1.4354095821658728
2019-02-20,1.4463453383463718
2019-02-21,1.451647110096281
2019-02-22,1.4754804698386605
2019-02-25,1.48926155625737
2019-02-26,1.4107164470651532
2019-02-27,1.40530209399309
2019-02-28,1.4008831496142493
2019-03-01,1.4035105917549147
2019-03-04,1.3777799035871414
2019-03-05,1.3551666039183965
2019-03-06,1.3535797564226246
2019-03-07,1.3640876073186243
2019-03-08,1.3797916578991634
2019-03-11,1.4121235034215731
2019-03-12,1.4157031174372905
2019-03-13,1.4289822895145965
2019-03-14,1.4536930568492337
2019-03-15,1.4565798295574603
2019-03-18,1.486737284523035
2019-03-19,1.4980247736901733
2019-03-20,1.5187434938990285
2019-03-21,1.6029303069559095
2019-03-22,1.5481093934392551
2019-03-25,1.559891090336218
2019-03-26,1.5933686335505484
2019-03-27,1.5573927298572694
2019-03-28,1.5724554007117781
2019-03-29,1.5753912243538992
2019-04-01,1.5779816699569469
2019-04-02,1.5632248596852856
2019-04-03,1.555024921338911
2019-04-04,1.4389259510793289
2019-04-05,1.4168557404986304
2019-04-08,1.3971860097809874
2019-04-09,1.3654286578919268
2019-04-10,1.379953331661382
2019-04-11,1.3789686326874082
2019-04-12,1.3804457046260037
2019-04-15,1.3768628087714117
2019-04-16,1.3595376111293893
2019-04-17,1.3199881035717893
2019-04-18,1.3018699405952767
2019-04-22,1.330811127195838
2019-04-23,1.362558376959419
2019-04-24,1.37547610686847
2019-04-25,1.342102975005432
2019-04-26,1.3597209618556914
2019-04-29,1.3597845294003816
2019-04-30,1.349602648065297
2019-05-01,1.3312813868366673
2019-05-02,1.3737005156447124
2019-05-03,1.3886869751849364
2019-05-06,1.3609096173009316
2019-05-07,1.3184951577711714
2019-05-08,1.3239514182048207
2019-05-09,1.3209988613082837
2019-05-10,1.3554727093192966
2019-05-13,1.2979742099947984
2019-05-14,1.315383525263667
2019-05-15,1.3163938626684497
2019-05-16,1.2895804442194638
2019-05-17,1.277300626970258
2019-05-20,1.2699917572774788
2019-05-21,1.2743744452243249
2019-05-22,1.2808714601346267
2019-05-23,1.2621035746165818
2019-05-24,1.2683814369660045
2019-05-28,1.2781378454512113
2019-05-29,1.2538925546943442
2019-05-30,1.2666319330001712
2019-05-31,1.2447406421173495
2019-06-03,1.2440074551665248
2019-06-04,1.2440074551665248
2019-06-05,1.2440074551665248
2019-06-06,1.2440074551665248
2019-06-07,1.2440074551665248
2019-06-10,1.2394814756680166
2019-06-11,1.2057530304439943
2019-06-12,1.2245334890401371
2019-06-13,1.2205066102797293
2019-06-14,1.2121022979022598
2019-06-17,1.211027558436615
2019-06-18,1.2127468428491595
2019-06-19,1.2862622375744681
2019-06-20,1.2872792189112707
2019-06-21,1.2709717834365217
2019-06-24,1.2242507804509895
2019-06-25,1.175328152854107
2019-06-26,1.1562355012503214
2019-06-27,1.1562355012503214
2019-06-28,1.1562355012503214
2019-07-01,1.1381624804668529
2019-07-02,1.1525278930817073
2019-07-03,1.154185148374882
2019-07-05,1.1605532510296739
2019-07-08,1.184011459167019
2019-07-09,1.2060333519087305
2019-07-10,1.212108154302145
2019-07-11,1.1913205906744377
2019-07-12,1.1847190783200001
2019-07-15,1.2324049798173164
2019-07-16,1.2101644275167676
2019-07-17,1.2204737841829858
2019-07-18,1.2204841693043078
2019-07-19,1.2094188420280734
2019-07-22,1.2254182763421104
2019-07-23,1.2276528406844815
2019-07-24,1.2377101888605404
2019-07-25,1.2367710474128786
2019-07-26,1.2491307559092315
2019-07-29,1.2077819969999934
2019-07-30,1.204739475172125
2019-07-31,1.1680736308274613
2019-08-01,1.2121162331541995
2019-08-02,1.1948813899432267
2019-08-05,1.172162437991652
2019-08-06,1.1983286474281483
2019-08-07,1.2152540894341979
2019-08-08,1.249400051390965
2019-08-09,1.2722350972838288
2019-08-12,1.261919567714187
2019-08-13,1.271903126988889
2019-08-14,1.2358544515053869
2019-08-15,1.234493296419177
2019-08-16,1.251912738589767
2019-08-19,1.2581328017816948
2019-08-20,1.2795746633273852
2019-08-21,1.3095391119395419
2019-08-22,1.3076462857783255
2019-08-23,1.2912835607819066
2019-08-26,1.3215774202024515
2019-08-27,1.3409770064073068
2019-08-28,1.3211607006420698
2019-08-29,1.3173135177862627
2019-08-30,1.3019609805461045
2019-09-03,1.299835451212724
2019-09-04,1.3026348137578883
2019-09-05,1.3126110073250885
2019-09-06,1.2901233878876
2019-09-09,1.2478230464397524
2019-09-10,1.2439171414980887
2019-09-11,1.2439171414980887
2019-09-12,1.2439171414980887
2019-09-13,1.2439171414980887
2019-09-16,1.2618623952513301
2019-09-17,1.2764218703308337
2019-09-18,1.2943949373913914
2019-09-19,1.2829295615125638
2019-09-20,1.267450405410802
2019-09-23,1.281672117293106
2019-09-24,1.2634693516328417
2019-09-25,1.2926243038568401
2019-09-26,1.287385696929078
2019-09-27,1.2465700830233684
2019-09-30,1.2525042486259725
2019-10-01,1.2466742639264519
2019-10-02,1.229875269809594
2019-10-03,1.239290096653952
2019-10-04,1.2623844174619512
2019-10-07,1.2605956270494107
2019-10-08,1.227251152563252
2019-10-09,1.247017142145364
2019-10-10,1.2487102161390804
2019-10-11,1.2638625024781454
2019-10-14,1.2576590096822753
2019-10-15,1.2803966292238649
2019-10-16,1.2582665072966925
2019-10-17,1.2679085182469552
2019-10-18,1.2570326260502451
2019-10-21,1.2815309455935524
2019-10-22,1.2717659163741861
2019-10-23,1.2522693338876227
2019-10-24,1.338286564995889
2019-10-25,1.3493605800820672
2019-10-28,1.3848397591852237
2019-10-29,1.3595470841441886
2019-10-30,1.372208440595518
2019-10-31,1.3469450099105524
2019-11-01,1.3709034122621124
2019-11-04,1.3773749943913707
2019-11-05,1.3686418263869577
2019-11-06,1.3675785779195027
2019-11-07,1.363289994823298
2019-11-08,1.3707926578262877
2019-11-11,1.3697797868676869
2019-11-12,1.3680368645015224
2019-11-13,1.3794404439689099
2019-11-14,1.3840651679149019
2019-11-15,1.4046209350459866
2019-11-18,1.3996741960824852
2019-11-19,1.3873464842143206
2019-11-20,1.374020316272823
2019-11-21,1.3345635482724123
2019-11-22,1.3329541693978335
2019-11-25,1.3224009696307013
2019-11-26,1.2945403055248637
2019-11-27,1.3062143437192324
2019-11-29,1.299214325500409
2019-12-02,1.3016703707443928
2019-12-03,1.3071131855195648
2019-12-04,1.314306696196938
2019-12-05,1.307976860262608
2019-12-06,1.3188303188550483
2019-12-09,1.3140649555787003
2019-12-10,1.34069086683728
2019-12-11,1.3486685953802353
2019-12-12,1.414822565439223
2019-12-13,1.3880287786499967
2019-12-16,1.453008549345451
2019-12-17,1.455236783721127
2019-12-18,1.4747150422065662
2019-12-19,1.504736782047655
2019-12-20,1.5300091297900473
2019-12-23,1.5784951798440274
2019-12-24,1.6083897537737957
2019-12-26,1.6209220673262366
2019-12-27,1.612245290954034
2019-12-30,1.570758537783481
2019-12-31,1.5835216138094488
2020-01-02,1.661281686708084
2020-01-03,1.677524597722
2020-01-06,1.6904922593612282
2020-01-07,1.7220423385186154
2020-01-08,1.7596302130014179
2020-01-09,1.7579603674196376
2020-01-10,1.73828740928652
2020-01-13,1.8384870499432455
2020-01-14,1.8546550623856084
2020-01-15,1.822801850881995
2020-01-16,1.8336892234310294
2020-01-17,1.8474741743959706
2020-01-21,1.920536623651814
2020-01-22,1.9702291453176968
2020-01-23,1.9800635518468486
2020-01-24,1.9428314952227383
2020-01-27,1.8908616515860885
2020-01-28,1.9080500437525325
2020-01-29,1.93532315509069
2020-01-30,2.0511127923134156
2020-01-31,2.0700045286803364
2020-02-03,2.322507263040036
2020-02-04,2.5575601445543694
2020-02-05,2.3730885039201457
2020-02-06,2.3686214370196894
2020-02-07,2.3785078599482583
2020-02-10,2.4370776185132916
2020-02-11,2.4405246127535944
2020-02-12,2.498320271058243
2020-02-13,2.5299056072920267
2020-02-14,2.5311062546483596
2020-02-18,2.5753476913306272
2020-02-19,2.613512515242885
2020-02-20,2.5610206859127
2020-02-21,2.425262267144711
2020-02-24,2.4327680849922366
2020-02-25,2.377465252683787
2020-02-26,2.368147169132807
2020-02-27,2.2976215330120255
2020-02-28,2.2976215330120255
2020-03-02,2.322139812470657
2020-03-03,2.2961450062660798
2020-03-04,2.3759857691592345
2020-03-05,2.3458567140955653
2020-03-06,2.33889764567911
2020-03-09,2.2491884390927326
2020-03-10,2.2491884390927326
2020-03-11,2.2491884390927326
2020-03-12,2.2491884390927326
2020-03-13,2.2491884390927326
2020-03-16,2.2491884390927326
2020-03-17,2.2491884390927326
2020-03-18,2.2491884390927326
2020-03-19,2.2491884390927326
2020-03-20,2.2491884390927326
2020-03-23,2.2491884390927326
2020-03-24,2.2491884390927326
2020-03-25,2.2491884390927326
2020-03-26,2.2491884390927326
2020-03-27,2.2491884390927326
2020-03-30,2.2491884390927326
2020-03-31,2.2491884390927326
2020-04-01,2.2491884390927326
2020-04-02,2.2491884390927326
2020-04-03,2.2491884390927326
2020-04-06,2.2491884390927326
2020-04-07,2.2491884390927326
2020-04-08,2.2491884390927326
2020-04-09,2.2491884390927326
2020-04-13,2.231791304375199
2020-04-14,2.348619790288265
2020-04-15,2.427792263248354
2020-04-16,2.466600629740707
2020-04-17,2.4499744296114283
2020-04-20,2.5656202620289257
2020-04-21,2.426217889516688
2020-04-22,2.4953914968653783
2020-04-23,2.4999074424617236
2020-04-24,2.5819581245645526
2020-04-27,2.6651614508670893
2020-04-28,2.531995773586827
2020-04-29,2.513933397784698
2020-04-30,2.490428560478921
2020-05-01,2.516441344827805
2020-05-04,2.637444308542123
2020-05-05,2.6395409099921654
2020-05-06,2.6790375486269262
2020-05-07,2.779287090932632
2020-05-08,2.787639051142854
2020-05-11,2.830179101667314
2020-05-12,2.819667654336566
2020-05-13,2.8051472898815533
2020-05-14,2.824281072428323
2020-05-15,2.837809173427596
2020-05-18,2.772315865332605
2020-05-19,2.8449440961229286
2020-05-20,2.923842430446345
2020-05-21,2.8915445106189512
2020-05-22,2.945971175947645
2020-05-26,2.8829440001580533
2020-05-27,2.8216118428883314
2020-05-28,2.8732028676343417
2020-05-29,3.4259437864101026
2020-06-01,3.77114833418758
2020-06-02,3.6539913269473043
2020-06-03,3.789205901876156
2020-06-04,3.6714991184064694
2020-06-05,3.5660421683259504
2020-06-08,3.6553883104872815
2020-06-09,3.6406559705104358
2020-06-10,3.742451427595223
2020-06-11,3.646772296230316
2020-06-12,3.6058549030648552
2020-06-15,3.756269611611182
2020-06-16,3.7653935560931444
2020-06-17,3.7790358396865846
2020-06-18,3.9563526519859895
2020-06-19,3.867366857843004
2020-06-22,3.9630875219739203
2020-06-23,3.95978952953482
2020-06-24,3.9127210394264704
2020-06-25,4.010550341033762
2020-06-26,3.777812333282071
2020-06-29,3.753716368171193
2020-06-30,3.8683883028069723
2020-07-01,3.955278249322265
2020-07-02,4.016201318978141
2020-07-06,4.079429065940847
2020-07-07,4.063495789448327
2020-07-08,4.344291970857852
2020-07-09,4.515968487005955
2020-07-10,4.466530337761082
2020-07-13,4.16606819553761
2020-07-14,4.096472152549855
2020-07-15,4.0509682720154965
2020-07-16,4.003707648437329
2020-07-17,4.059225741759952
2020-07-20,4.346106069943314
2020-07-21,4.213087812635267
2020-07-22,4.237462874460379
2020-07-23,4.106960426140334
2020-07-24,3.912337194236649
2020-07-27,4.096977998230305
2020-07-28,4.010357553148793
2020-07-29,4.083822411840128
2020-07-30,4.110218730859697
2020-07-31,4.04993250995545
2020-08-03,4.16494307070231
2020-08-04,4.165834126046397
2020-08-05,4.199227398998736
2020-08-06,4.165333789534447
2020-08-07,4.006789074907361
2020-08-10,3.844696871222926
2020-08-11,3.7900850022258856
2020-08-12,4.013044152417516
2020-08-13,4.094924821918832
2020-08-14,4.131649988568633
2020-08-17,4.368615804889723
2020-08-18,4.412938267394953
2020-08-19,4.387899859065433
2020-08-20,4.582923980030884
2020-08-21,4.668820916594523
2020-08-24,4.606077454874695
2020-08-25,4.700313456855934
2020-08-26,4.8524291444488235
2020-08-27,4.901910086601024
2020-08-28,4.914960159601403
2020-08-31,5.392513785538471
2020-09-01,5.283185181321942
2020-09-02,4.844044280919492
2020-09-03,4.666944982653125
2020-09-04,4.666944982653125
2020-09-08,4.670339885535874
2020-09-09,4.7147647510917885
2020-09-10,4.7020096936264935
2020-09-11,4.6792152020959925
2020-09-14,4.702997080761954
2020-09-15,4.754537109627278
2020-09-16,4.74654360536972
2020-09-17,4.693498679543653
2020-09-18,4.711189332308509
2020-09-21,4.783740152978758
2020-09-22,4.838773303695927
2020-09-23,4.744117388083177
2020-09-24,4.7085123333105585
2020-09-25,4.756554604333247
2020-09-28,4.785167214156688
2020-09-29,4.779030103948765
2020-09-30,4.8067088435939915
2020-10-01,4.868017399265367
2020-10-02,4.813302004143614
2020-10-05,4.877168024485263
2020-10-06,4.872723157177077
2020-10-07,4.915302155030361
2020-10-08,4.901769984585723
2020-10-09,4.935216277713061
2020-10-12,4.962455428428947
2020-10-13,5.024118406361579
2020-10-14,4.953850828544353
2020-10-15,4.911597833085423
2020-10-16,4.915439278016909
2020-10-19,4.892024889267413
2020-10-20,4.878126442165142
2020-10-21,4.78714647726002
2020-10-22,4.75117260538886
2020-10-23,4.75117260538886
2020-10-26,4.719059722623884
2020-10-27,4.717297720827487
2020-10-28,4.668874365587732
2020-10-29,4.739106357811746
2020-10-30,4.631180746239676
2020-11-02,4.638511925749668
2020-11-03,4.668803912537236
2020-11-04,4.776078849169329
2020-11-05,5.040505217267082
2020-11-06,5.080587500096748
2020-11-09,4.916819426143178
2020-11-10,4.813348233896968
2020-11-11,4.8839469986387325
2020-11-12,4.84874088596935
2020-11-13,4.852000446060607
2020-11-16,4.920236311690877
2020-11-17,4.90120606434946
2020-11-18,4.896435892050552
2020-11-19,4.9083862639279
2020-11-20,4.853028196652742
2020-11-23,4.912725990901826
2020-11-24,4.993212331561237
2020-11-25,4.9530442194565065
2020-11-27,4.9467265649996754
2020-11-30,4.924978602721064
2020-12-01,4.9615767734532135
2020-12-02,5.128213512080981
2020-12-03,5.099136004894058
2020-12-04,5.287937796065689
2020-12-07,5.238822935540217
2020-12-08,5.206727020638814
2020-12-09,5.2196165235776455
2020-12-10,5.245014994088256
2020-12-11,5.077022677409573
2020-12-14,5.003702209148695
2020-12-15,4.945430713344117
2020-12-16,4.932900888810592
2020-12-17,5.196896270585865
2020-12-18,5.225209423011303
2020-12-21,5.330062369647865
2020-12-22,5.519887855460402
2020-12-23,5.374630986123632
2020-12-24,5.3494417054582
2020-12-28,5.193690930887795
2020-12-29,5.214240507408376
2020-12-30,5.267079944724979
2020-12-31,5.116367498161647
2021-01-04,5.061495829304046
2021-01-05,5.24151665715474
2021-01-06,5.047206415289725
2021-01-07,5.229210569868245
2021-01-08,5.087097682121349
2021-01-11,5.043091824384702
2021-01-12,5.349497592225548
2021-01-13,5.406601226669837
2021-01-14,5.255515007470699
2021-01-15,5.132298153440266
2021-01-19,5.2238103516717995
2021-01-20,5.24468095653779
2021-01-21,5.199638680887448
2021-01-22,5.1305607301356435
2021-01-25,5.079892800158595
2021-01-26,5.0864450631286715
2021-01-27,5.032281819804368
2021-01-28,4.950078202070521
2021-01-29,4.830192457912595
2021-02-01,4.945112277425531
2021-02-02,5.0917450081981634
2021-02-03,5.022796963339582
2021-02-04,5.075842578576459
2021-02-05,5.0768330318853305
2021-02-08,5.095642017003419
2021-02-09,5.071052323944569
2021-02-10,5.029463698513155
2021-02-11,5.087982378657157
2021-02-12,5.183154902723345
2021-02-16,5.1298287178846955
2021-02-17,5.035987374735248
2021-02-18,5.04377697163625
2021-02-19,5.043212475637918
2021-02-22,4.845384296489934
2021-02-23,4.664710076725698
2021-02-24,4.664710076725698
2021-02-25,4.664710076725698
2021-02-26,4.664710076725698
2021-03-01,4.677721011536886
2021-03-02,4.586738988057611
2021-03-03,4.542491071375483
2021-03-04,4.421542877322105
2021-03-05,4.406129817653008
2021-03-08,4.292822742976858
2021-03-09,4.429075596251119
2021-03-10,4.365657751995355
2021-03-11,4.4582028885381915
2021-03-12,4.410730696033999
2021-03-15,4.42992392398401
2021-03-16,4.497361726785522
2021-03-17,4.552448074467247
2021-03-18,4.436128608086252
2021-03-19,4.450374121725491
2021-03-22,4.5036016182589975
2021-03-23,4.401665025420892
2021-03-24,4.447757547979557
2021-03-25,4.434281260671744
2021-03-26,4.521388479419097
2021-03-29,4.510021599195282
2021-03-30,4.49458244263142
2021-03-31,4.5694727807688835
2021-04-01,4.6661722737445555
2021-04-05,4.751151821423994
2021-04-06,4.682383921743558
2021-04-07,4.702763370966404
2021-04-08,4.732970734303397
2021-04-09,4.7712612176902605
2021-04-12,4.632769988536553
2021-04-13,4.627059536286559
2021-04-14,4.5814334118991775
2021-04-15,4.613281727323626
2021-04-16,4.5971388759584135
2021-04-19,4.511871015336958
2021-04-20,4.490929349236524
2021-04-21,4.490929349236524
2021-04-22,4.490929349236524
2021-04-23,4.490929349236524
2021-04-26,4.530769136017186
2021-04-27,4.510291038096298
2021-04-28,4.511342178841495
2021-04-29,4.491910929775804
2021-04-30,4.451891615378166
2021-05-03,4.4608315306731265
2021-05-04,4.343949941686394
2021-05-05,4.342651878588374
2021-05-06,4.377156127134926
2021-05-07,4.435389206072074
2021-05-10,4.245778798998231
2021-05-11,4.250858231147484
2021-05-12,4.179776288665286
2021-05-13,4.179776288665286
2021-05-14,4.179776288665286
2021-05-17,4.181611765810787
2021-05-18,4.153323347069073
2021-05-19,4.158747240865061
2021-05-20,4.182600019527898
2021-05-21,4.17618963605311
2021-05-24,4.2135203043173535
2021-05-25,4.223982297291926
2021-05-26,4.218431215523966
2021-05-27,4.238887005514458
2021-05-28,4.224867159089772
2021-06-01,4.231940329993132
2021-06-02,4.227426856271217
2021-06-03,4.211648618250237
2021-06-04,4.2313563734621935
2021-06-07,4.2233863063038815
2021-06-08,4.216914041425146
2021-06-09,4.200232493278962
2021-06-10,4.207597548589574
2021-06-11,4.203598444405427
2021-06-14,4.235202272737209
2021-06-15,4.208095032162072
2021-06-16,4.1917537714504025
2021-06-17,4.309320738421039
2021-06-18,4.2843190332239995
2021-06-21,4.2682458073283955
2021-06-22,4.344670289756463
2021-06-23,4.369893267063731
2021-06-24,4.395935050974971
2021-06-25,4.369410078877301
2021-06-28,4.5290028947139325
2021-06-29,4.521409541953458
2021-06-30,4.5046304580665435
2021-07-01,4.551496498895443
2021-07-02,4.584825018117441
2021-07-06,4.603264822981955
2021-07-07,4.5572600522587425
2021-07-08,4.486050365722391
2021-07-09,4.519269828695399
2021-07-12,4.5826877079697805
2021-07-13,4.548293894086076
2021-07-14,4.4854562706785295
2021-07-15,4.4046192208360155
2021-07-16,4.393621607453329
2021-07-19,4.3794595259638305
2021-07-20,4.416632463990316
2021-07-21,4.444796627263042
2021-07-22,4.476390305103168
2021-07-23,4.554012174660929
2021-07-26,4.564842647543197
2021-07-27,4.53529205165779
2021-07-28,4.5539386040041645
2021-07-29,4.509374917581328
2021-07-30,4.512436850828127
2021-08-02,4.492537958436131
2021-08-03,4.4960349290333435
2021-08-04,4.534541513820077
2021-08-05,4.552320571274395
2021-08-06,4.545951270065624
2021-08-09,4.541683490341811
2021-08-10,4.528884531082619
2021-08-11,4.52959687089293
2021-08-12,4.548860386990814
2021-08-13,4.559015085755266
2021-08-16,4.575110655806702
2021-08-17,4.532535869520733
2021-08-18,4.516213450057147
2021-08-19,4.537208656995209
2021-08-20,4.541292962505454
2021-08-23,4.5818971742174615
2021-08-24,4.636970787847362
2021-08-25,4.643065397909054
2021-08-26,4.549763732740702
2021-08-27,4.611195568432893
2021-08-30,4.663022559741319
2021-08-31,4.68472688922752
2021-09-01,4.6360684977499
2021-09-02,4.704210417885475
2021-09-03,4.763888928775353
2021-09-07,4.714704742736453
2021-09-08,4.734558725270132
2021-09-09,4.754013442150553
2021-09-10,4.610002569384157
2021-09-13,4.554970241751226
2021-09-14,4.6051223051325
2021-09-15,4.622302522685077
2021-09-16,4.709591405336955
2021-09-17,4.692064305261084
2021-09-20,4.670393216556031
2021-09-21,4.723233446136326
2021-09-22,4.832340877383423
2021-09-23,4.819613502947105
2021-09-24,4.802377709332335
2021-09-27,4.651450270641311
2021-09-28,4.525981097908035
2021-09-29,4.526914152645562
2021-09-30,4.613141484695183
2021-10-01,4.6781353431873764
2021-10-04,4.495958011163387
2021-10-05,4.579081920373357
2021-10-06,4.603724084114056
2021-10-07,4.5827263052345035
2021-10-08,4.551836813728851
2021-10-11,4.598013073736442
2021-10-12,4.673500084943834
2021-10-13,4.850517212277265
2021-10-14,4.8031382934307185
2021-10-15,4.833779300544647
2021-10-18,4.901640978737934
2021-10-19,4.904498822643763
2021-10-20,4.918979234190729
2021-10-21,4.945881943699655
2021-10-22,4.962487734795193
2021-10-25,4.933798162450586
2021-10-26,4.947722739981673
2021-10-27,4.844583092802628
2021-10-28,4.9251595027625035
2021-10-29,5.0547679073407625
2021-11-01,5.020868829340699
2021-11-02,5.015660939561013
2021-11-03,4.957533917054777
2021-11-04,5.017921972871144
2021-11-05,5.33989082542111
2021-11-08,5.495351542751222
2021-11-09,5.574305871832907
2021-11-10,5.409431894844013
2021-11-11,5.4561505027547605
2021-11-12,5.519627845432985
2021-11-15,5.4910262280659055
2021-11-16,5.546535177603987
2021-11-17,5.468290912765199
2021-11-18,5.488525497189667
2021-11-19,5.547046231242384
2021-11-22,5.3635390995220105
2021-11-23,5.177158648458062
2021-11-24,5.215582255548996
2021-11-26,5.177664830614264
2021-11-29,5.291652018969067
2021-11-30,5.223530166258071
2021-12-01,5.027645249089002
2021-12-02,5.069958581685041
2021-12-03,4.9267621799989865
2021-12-06,4.804288476345979
2021-12-07,4.804288476345979
2021-12-08,4.804288476345979
2021-12-09,4.804288476345979
2021-12-10,4.804288476345979
2021-12-13,4.68098942733922
2021-12-14,4.620499945320663
2021-12-15,4.797753487394194
2021-12-16,4.5967038599711785
2021-12-17,4.662626494133432
2021-12-20,4.704540146403098
2021-12-21,4.781994161722043
2021-12-22,4.869606943563676
2021-12-23,4.889829285669297
2021-12-27,5.010041525433342
2021-12-28,4.914170179463605
2021-12-29,4.942707366017601
2021-12-30,4.88445112683525
2021-12-31,4.887053042287266
2022-01-03,4.931186542315447
2022-01-04,4.9316975752950265
2022-01-05,4.711090729982979
2022-01-06,4.727835131877799
2022-01-07,4.61672504670204
2022-01-10,4.5597229337440925
2022-01-11,4.563474592032086
2022-01-12,4.5744876158178345
2022-01-13,4.580659823710106
2022-01-14,4.601717122585076
2022-01-18,4.504199746666798
2022-01-19,4.469466923323568
2022-01-20,4.443937232578385
2022-01-21,4.443937232578385
2022-01-24,4.443937232578385
2022-01-25,4.443937232578385
2022-01-26,4.443937232578385
2022-01-27,4.443937232578385
2022-01-28,4.443937232578385
2022-01-31,4.443937232578385
2022-02-01,4.443937232578385
2022-02-02,4.443937232578385
2022-02-03,4.443937232578385
2022-02-04,4.443937232578385
2022-02-07,4.443937232578385
2022-02-08,4.443937232578385
2022-02-09,4.443937232578385
2022-02-10,4.443937232578385
2022-02-11,4.443937232578385
2022-02-14,4.443937232578385
2022-02-15,4.443937232578385
2022-02-16,4.443937232578385
2022-02-17,4.443937232578385
2022-02-18,4.443937232578385
2022-02-22,4.443937232578385
2022-02-23,4.443937232578385
2022-02-24,4.443937232578385
2022-02-25,4.443937232578385
2022-02-28,4.443937232578385
2022-03-01,4.443937232578385
2022-03-02,4.443937232578385
2022-03-03,4.443937232578385
2022-03-04,4.443937232578385
2022-03-07,4.443937232578385
2022-03-08,4.443937232578385
2022-03-09,4.443937232578385
2022-03-10,4.443937232578385
2022-03-11,4.443937232578385
2022-03-14,4.443937232578385
2022-03-15,4.443937232578385
2022-03-16,4.443937232578385
2022-03-17,4.443937232578385
2022-03-18,4.443937232578385
2022-03-21,4.443937232578385
2022-03-22,4.443937232578385
2022-03-23,4.443937232578385
2022-03-24,4.443937232578385
2022-03-25,4.443937232578385
2022-03-28,4.443937232578385
2022-03-29,4.443937232578385
2022-03-30,4.443937232578385
2022-03-31,4.443937232578385
2022-04-01,4.443937232578385
2022-04-04,4.443937232578385
2022-04-05,4.443937232578385
2022-04-06,4.443937232578385
2022-04-07,4.443937232578385
2022-04-08,4.443937232578385
2022-04-11,4.443937232578385
2022-04-12,4.443937232578385
2022-04-13,4.443937232578385
2022-04-14,4.443937232578385
2022-04-18,4.443937232578385
2022-04-19,4.443937232578385
2022-04-20,4.443937232578385
2022-04-21,4.443937232578385
2022-04-22,4.443937232578385
2022-04-25,4.443937232578385
2022-04-26,4.443937232578385
2022-04-27,4.443937232578385
2022-04-28,4.443937232578385
2022-04-29,4.443937232578385
2022-05-02,4.443937232578385
2022-05-03,4.443937232578385
2022-05-04,4.443937232578385
2022-05-05,4.443937232578385
2022-05-06,4.443937232578385
2022-05-09,4.443937232578385
2022-05-10,4.443937232578385
2022-05-11,4.443937232578385
2022-05-12,4.443937232578385
2022-05-13,4.443937232578385
2022-05-16,4.443937232578385
2022-05-17,4.443937232578385
2022-05-18,4.443937232578385
2022-05-19,4.443937232578385
2022-05-20,4.443937232578385
2022-05-23,4.443937232578385
2022-05-24,4.443937232578385
2022-05-25,4.443937232578385
2022-05-26,4.443937232578385
2022-05-27,4.443937232578385
2022-05-31,4.443937232578385
2022-06-01,4.443937232578385
2022-06-02,4.443937232578385
2022-06-03,4.443937232578385
2022-06-06,4.443937232578385
2022-06-07,4.443937232578385
2022-06-08,4.443937232578385
2022-06-09,4.443937232578385
2022-06-10,4.443937232578385
2022-06-13,4.443937232578385
2022-06-14,4.443937232578385
2022-06-15,4.443937232578385
2022-06-16,4.443937232578385
2022-06-17,4.443937232578385
2022-06-21,4.443937232578385
2022-06-22,4.443937232578385
2022-06-23,4.443937232578385
2022-06-24,4.443937232578385
2022-06-27,4.443937232578385
2022-06-28,4.443937232578385
2022-06-29,4.443937232578385
2022-06-30,4.443937232578385
2022-07-01,4.443937232578385
2022-07-05,4.443937232578385
2022-07-06,4.443937232578385
2022-07-07,4.443937232578385
2022-07-08,4.443937232578385
2022-07-11,4.443937232578385
2022-07-12,4.443937232578385
2022-07-13,4.443937232578385
2022-07-14,4.443937232578385
2022-07-15,4.443937232578385
2022-07-18,4.443937232578385
2022-07-19,4.443937232578385
2022-07-20,4.443937232578385
2022-07-21,4.443937232578385
2022-07-22,4.443937232578385
2022-07-25,4.443937232578385
2022-07-26,4.443937232578385
2022-07-27,4.443937232578385
2022-07-28,4.443937232578385
2022-07-29,4.443937232578385
2022-08-01,4.443937232578385
2022-08-02,4.443937232578385
2022-08-03,4.443937232578385
2022-08-04,4.443937232578385
2022-08-05,4.443937232578385
2022-08-08,4.443937232578385
2022-08-09,4.443937232578385
2022-08-10,4.443937232578385
2022-08-11,4.443937232578385
2022-08-12,4.443937232578385
2022-08-15,4.443937232578385
2022-08-16,4.443937232578385
2022-08-17,4.443937232578385
2022-08-18,4.443937232578385
2022-08-19,4.443937232578385
2022-08-22,4.443937232578385
2022-08-23,4.443937232578385
2022-08-24,4.443937232578385
2022-08-25,4.443937232578385
2022-08-26,4.443937232578385
2022-08-29,4.443937232578385
2022-08-30,4.443937232578385
2022-08-31,4.443937232578385
2022-09-01,4.443937232578385
2022-09-02,4.443937232578385
2022-09-06,4.443937232578385
2022-09-07,4.443937232578385
2022-09-08,4.443937232578385
2022-09-09,4.443937232578385
2022-09-12,4.443937232578385
2022-09-13,4.443937232578385
2022-09-14,4.443937232578385
2022-09-15,4.443937232578385
2022-09-16,4.443937232578385
2022-09-19,4.443937232578385
2022-09-20,4.443937232578385
2022-09-21,4.443937232578385
2022-09-22,4.443937232578385
2022-09-23,4.443937232578385
2022-09-26,4.443937232578385
2022-09-27,4.443937232578385
2022-09-28,4.443937232578385
2022-09-29,4.443937232578385
2022-09-30,4.443937232578385
2022-10-03,4.443937232578385
2022-10-04,4.443937232578385
2022-10-05,4.443937232578385
2022-10-06,4.443937232578385
2022-10-07,4.443937232578385
2022-10-10,4.443937232578385
2022-10-11,4.443937232578385
2022-10-12,4.443937232578385
2022-10-13,4.443937232578385
2022-10-14,4.443937232578385
2022-10-17,4.443937232578385
2022-10-18,4.443937232578385
2022-10-19,4.443937232578385
2022-10-20,4.443937232578385
2022-10-21,4.443937232578385
2022-10-24,4.443937232578385
2022-10-25,4.443937232578385
2022-10-26,4.443937232578385
2022-10-27,4.443937232578385
2022-10-28,4.443937232578385
2022-10-31,4.443937232578385
2022-11-01,4.443937232578385
2022-11-02,4.443937232578385
2022-11-03,4.443937232578385
2022-11-04,4.443937232578385
2022-11-07,4.443937232578385
2022-11-08,4.443937232578385
2022-11-09,4.443937232578385
2022-11-10,4.443937232578385
2022-11-11,4.443937232578385
2022-11-14,4.443937232578385
2022-11-15,4.443937232578385
2022-11-16,4.443937232578385
2022-11-17,4.443937232578385
2022-11-18,4.443937232578385
2022-11-21,4.443937232578385
2022-11-22,4.443937232578385
2022-11-23,4.443937232578385
2022-11-25,4.443937232578385
2022-11-28,4.443937232578385
2022-11-29,4.443937232578385
2022-11-30,4.443937232578385
2022-12-01,4.443937232578385
2022-12-02,4.443937232578385
2022-12-05,4.443937232578385
2022-12-06,4.443937232578385
2022-12-07,4.443937232578385
2022-12-08,4.443937232578385
2022-12-09,4.443937232578385
2022-12-12,4.443937232578385
2022-12-13,4.443937232578385
2022-12-14,4.443937232578385
2022-12-15,4.443937232578385
2022-12-16,4.443937232578385
2022-12-19,4.443937232578385
2022-12-20,4.443937232578385
2022-12-21,4.443937232578385
2022-12-22,4.443937232578385
2022-12-23,4.443937232578385
2022-12-27,4.443937232578385
2022-12-28,4.443937232578385
2022-12-29,4.443937232578385
2022-12-30,4.443937232578385
2023-01-03,4.443937232578385
2023-01-04,4.443937232578385
2023-01-05,4.443937232578385
2023-01-06,4.443937232578385
2023-01-09,4.443937232578385
2023-01-10,4.443937232578385
2023-01-11,4.443937232578385
2023-01-12,4.443937232578385
2023-01-13,4.443937232578385
2023-01-17,4.443937232578385
2023-01-18,4.443937232578385
2023-01-19,4.443937232578385
2023-01-20,4.443937232578385
2023-01-23,4.443937232578385
2023-01-24,4.443937232578385
2023-01-25,4.443937232578385
2023-01-26,4.443937232578385
2023-01-27,4.443937232578385
2023-01-30,4.443937232578385
2023-01-31,4.443937232578385
2023-02-01,4.443937232578385
2023-02-02,4.443937232578385
2023-02-03,4.443937232578385
2023-02-06,4.468561494883283
2023-02-07,4.6505584321919
2023-02-08,4.556415374447907
2023-02-09,4.504876791121328
2023-02-10,4.345483511768126
2023-02-13,4.464233443042691
2023-02-14,4.591167200678148
2023-02-15,4.541424588476823
2023-02-16,4.403821960227155
2023-02-17,4.343490899911364
2023-02-21,4.255680857129707
2023-02-22,4.254817887616385
2023-02-23,4.5638930351834075
2023-02-24,4.5235250723780736
2023-02-27,4.530950050713525
2023-02-28,4.53636471261307
2023-03-01,4.47095402560325
2023-03-02,4.544108787564751
2023-03-03,4.676793873208251
2023-03-06,4.6385873064869685
2023-03-07,4.608013509702429
2023-03-08,4.706451189234741
2023-03-09,4.605098688581828
2023-03-10,4.540316840844776
2023-03-13,4.5496518001293165
2023-03-14,4.753931185648685
2023-03-15,4.796319147675396
2023-03-16,4.984233008738068
2023-03-17,4.942010408386224
2023-03-20,4.975308716844484
2023-03-21,5.03612606609107
2023-03-22,5.049256022397657
2023-03-23,5.15615876519581
2023-03-24,5.123637886007815
2023-03-27,5.076102218978406
2023-03-28,5.048837358874945
2023-03-29,5.141152063066716
2023-03-30,5.20030210691273
2023-03-31,5.26960696754044
2023-04-03,5.297189981666817
2023-04-04,5.253456484745541
2023-04-05,5.17084853866249
2023-04-06,5.218184312268869
2023-04-10,5.267114218587125
2023-04-11,5.217345883813984
2023-04-12,5.146349277195069
2023-04-13,5.1850899943568685
2023-04-14,5.224168398642542
2023-04-17,5.2327699380614074
2023-04-18,5.297360319752292
2023-04-19,5.3110188942708625
2023-04-20,5.205224148415708
2023-04-21,5.20563077595677
2023-04-24,5.196742639659366
2023-04-25,5.0763966163790535
2023-04-26,5.165049986787546
2023-04-27,5.387486861719967
2023-04-28,5.45503505496983
2023-05-01,5.598032508986451
2023-05-02,5.497104938692168
2023-05-03,5.438853416996741
2023-05-04,5.389914596518048
2023-05-05,5.504418282666405
2023-05-08,5.557979843817689
2023-05-09,5.496692629080885
2023-05-10,5.528306770078872
2023-05-11,5.513507239456358
2023-05-12,5.4749397458248
2023-05-15,5.573943825329426
2023-05-16,5.6014499206979025
2023-05-17,5.728889699608024
2023-05-18,5.91805512016964
2023-05-19,5.8658015640039505
2023-05-22,5.874195130140276
2023-05-23,5.8115803927338145
2023-05-24,5.811957210188567
2023-05-25,6.629962023044868
2023-05-26,6.795218493416774
2023-05-30,6.922841825256885
2023-05-31,6.694235617655693
2023-06-01,6.95340777247293
2023-06-02,6.906090166245203
2023-06-05,6.8813272883658225
2023-06-06,6.824312662107383
2023-06-07,6.648867813605424
2023-06-08,6.765937437474989
2023-06-09,6.796169089414558
2023-06-12,6.912725118156823
2023-06-13,7.0790262625158284
2023-06-14,7.303481285761892
2023-06-15,7.3230337533110905
2023-06-16,7.32168846760311
2023-06-20,7.4630129014723785
2023-06-21,7.363647058890782
2023-06-22,7.383021957201452
2023-06-23,7.321413845390451
2023-06-26,7.084835304887465
2023-06-27,7.274687198835268
2023-06-28,7.181923354055391
2023-06-29,7.125447715451985
2023-06-30,7.319729941269417
2023-07-03,7.3252129677830204
2023-07-05,7.370396039087506
2023-07-06,7.331734126978704
2023-07-07,7.364769574381599
2023-07-10,7.353968373851199
2023-07-11,7.405821981080015
2023-07-12,7.639098330904552
2023-07-13,7.887780155149368
2023-07-14,7.803371332283152
2023-07-17,7.92095759663
2023-07-18,8.040801991654373
2023-07-19,8.022547097710168
2023-07-20,7.766660839576405
2023-07-21,7.582458020270227
2023-07-24,7.592584043410958
2023-07-25,7.706565373152462
2023-07-26,7.682316455958896
2023-07-27,7.730173606711466
2023-07-28,7.820973281558354
2023-07-31,7.777567582157996
2023-08-01,7.81534343015818
2023-08-02,7.424864681658315
2023-08-03,7.464639408576044
2023-08-04,7.624646650907243
2023-08-07,7.831587228660806
2023-08-08,7.701467636855448
2023-08-09,7.108015443584216
2023-08-10,7.108015443584216
2023-08-11,7.108015443584216
2023-08-14,7.189552074563183
2023-08-15,7.1652458474625185
2023-08-16,7.135512576668308
2023-08-17,7.032340804056499
2023-08-18,7.021532358062231
2023-08-21,7.054057185281066
2023-08-22,7.087962737641767
2023-08-23,7.134055669876185
2023-08-24,7.0537185674407645
2023-08-25,7.074414680445258
2023-08-28,7.109959971745345
2023-08-29,7.1788488467791876
2023-08-30,7.236081108007636
2023-08-31,7.226000785150437
2023-09-01,7.229702808806085
2023-09-05,7.1624779586599905
2023-09-06,7.080718687421376
2023-09-07,7.092287722514373
2023-09-08,7.0756282837357425
2023-09-11,7.07628652147881
2023-09-12,7.022644178989675
2023-09-13,6.955379657892323
2023-09-14,7.074595185609832
2023-09-15,7.023474903944205
2023-09-18,7.058775222437442
2023-09-19,6.826499105151486
2023-09-20,6.789794522585669
2023-09-21,6.789794522585669
2023-09-22,6.789794522585669
2023-09-25,6.764720646292868
2023-09-26,6.78442343684911
2023-09-27,6.81088308951964
2023-09-28,6.84572785467357
2023-09-29,6.854990281676953
2023-10-02,6.862092274650005
2023-10-03,6.749726773732481
2023-10-04,6.799012497575832
2023-10-05,6.809728825067033
2023-10-06,6.944416854041888
2023-10-09,7.024025228538818
2023-10-10,7.043469339542127
2023-10-11,7.1676430486192615
2023-10-12,7.1698593828024
2023-10-13,7.144603777682389
2023-10-16,7.182686844224589
2023-10-17,7.161522245007122
2023-10-18,7.163007404487028
2023-10-19,7.109815930678026
2023-10-20,7.038068043000098
2023-10-23,7.004941443110594
2023-10-24,7.063568487266339
2023-10-25,6.960438450133118
2023-10-26,6.891960108777828
2023-10-27,6.885060538272294
2023-10-30,6.90169113401706
2023-10-31,6.905848635671288
2023-11-01,6.921413266788768
2023-11-02,6.928342478080574
2023-11-03,6.919174496109465
2023-11-06,6.881255298215017
2023-11-07,6.991589899511037
2023-11-08,7.004102173264989
2023-11-09,6.943863543739072
2023-11-10,7.069639784631364
2023-11-13,7.170629226552164
2023-11-14,7.29860681700236
2023-11-15,7.253962242442227
2023-11-16,7.179958053638009
2023-11-17,7.231569884845522
2023-11-20,7.358273878321279
2023-11-21,7.124505778770424
2023-11-22,7.117704591150966
2023-11-24,7.055261948018057
2023-11-27,7.024465266656732
2023-11-28,7.171185316682411
2023-11-29,7.597144130989749
2023-11-30,7.678811565224928
2023-12-01,7.6796031485379235
2023-12-04,7.479066076094224
2023-12-05,7.507983458100945
2023-12-06,7.5162193559324635
2023-12-07,7.5299459454077216
2023-12-08,7.573505078708353
2023-12-11,7.701774444388095
2023-12-12,7.743936283867837
2023-12-13,7.769605649608257
2023-12-14,7.808317027940245
2023-12-15,7.911151156537189
2023-12-18,7.899404356738038
2023-12-19,7.8923667109146844
2023-12-20,7.738850372615328
2023-12-21,7.840261688339053
2023-12-22,7.82206601266728
2023-12-26,7.876816351165815
2023-12-27,7.9329721133704965
2023-12-28,7.904061005459289
2023-12-29,7.809260859106191
2024-01-02,7.504815894918066
2024-01-03,7.410486574880768
2024-01-04,7.410486574880768
2024-01-05,7.410486574880768
2024-01-08,7.7020957694062755
2024-01-09,7.967119657350606
2024-01-10,8.069758199169875
2024-01-11,8.092509943444115
2024-01-12,8.03675898469806
2024-01-16,8.401533604966964
2024-01-17,8.29189644720504
2024-01-18,8.458502566005357
2024-01-19,8.872954604175916
2024-01-22,8.83268426184458
2024-01-23,8.818573980209706
2024-01-24,9.123398303705788
2024-01-25,9.076933999177328
2024-01-26,8.949293833242567
2024-01-29,9.116992180873027
2024-01-30,8.974676923464248
2024-01-31,8.729140804312149
2024-02-01,8.903843464739076
2024-02-02,9.155161087985519
2024-02-05,9.048729080208961
2024-02-06,8.87551155583431
2024-02-07,9.186782913506661
2024-02-08,9.222180413690449
2024-02-09,9.397474003420843
2024-02-12,9.26401852236284
2024-02-13,9.271166407249439
2024-02-14,9.638305203007357
2024-02-15,9.540464881255124
2024-02-16,9.432696397135945
2024-02-20,9.135418017437416
2024-02-21,8.745090731871016
2024-02-22,9.20890628769354
2024-02-23,9.067940303795801
2024-02-26,9.020849349962266
2024-02-27,9.051755427781966
2024-02-28,8.955803314458365
2024-02-29,9.458053027084901
2024-03-01,9.900102196058086
2024-03-04,10.135509625812583
2024-03-05,10.169870810453485
2024-03-06,10.466394097938549
2024-03-07,10.705724497222935
2024-03-08,10.316038060993407
2024-03-11,9.981437797066103
2024-03-12,10.436357198933596
2024-03-13,10.154948230175474
2024-03-14,9.992110555839375
2024-03-15,9.986191688555813
2024-03-18,10.020374857163496
2024-03-19,10.072533766737298
2024-03-20,10.126407788231901
2024-03-21,10.185203361806487
2024-03-22,10.343062904791953
2024-03-25,10.52701610292607
2024-03-26,10.28234311558329
2024-03-27,9.992572374495213
2024-03-28,10.024579133494704
2024-04-01,10.01915650358318
2024-04-02,10.010887944999899
2024-04-03,10.211925922068236
2024-04-04,10.03691706197861
2024-04-05,10.299569526080305
2024-04-08,10.487552937117185
2024-04-09,10.342273859774934
2024-04-10,10.329202046515007
2024-04-11,10.467182174468757
2024-04-12,10.273284072825426
2024-04-15,9.926091439260842
2024-04-16,9.998961653250436
2024-04-17,9.783810550248573
2024-04-18,9.545051661222587
2024-04-19,9.451093731311628
2024-04-22,9.510639481383556
2024-04-23,9.570792358541679
2024-04-24,9.6019848676159
2024-04-25,9.506352315354931
2024-04-26,9.98895890750234
2024-04-29,9.812459902038318
2024-04-30,9.711486540152348
2024-05-01,9.742108483635718
2024-05-02,9.828138445446083
2024-05-03,9.845657843602389
2024-05-06,9.871548573179368
2024-05-07,9.967487368411776
2024-05-08,9.911290495091427
2024-05-09,9.926532214892244
2024-05-10,9.886936709789293
2024-05-13,9.903677784979763
2024-05-14,9.9376509262936
2024-05-15,10.000410926471949
2024-05-16,10.049456829927282
2024-05-17,10.106411904444496
2024-05-20,10.13730054633677
2024-05-21,10.167897099457694
2024-05-22,10.122065065228957
2024-05-23,10.03420626265217
2024-05-24,10.075489690717998
2024-05-28,10.12267419496396
2024-05-29,10.10562808505281
2024-05-30,9.98943983755075
2024-05-31,10.001469362359336
2024-06-03,10.018695187209982
2024-06-04,10.038941524002704
2024-06-05,10.09312769623973
2024-06-06,10.132725111148563
2024-06-07,10.061619121460813
2024-06-10,10.086458697886309
2024-06-11,10.134792382317947
2024-06-12,10.173500239451242
2024-06-13,10.090426332764828
2024-06-14,10.140127542987813
2024-06-17,10.153242468400364
2024-06-18,10.084955814646722
2024-06-20,10.122608640551684
2024-06-21,10.21231987055854
2024-06-24,10.214070476775682
2024-06-25,10.360432573858281
2024-06-26,10.354949094312566
2024-06-27,10.400995120928297
2024-06-28,10.298862499960677
2024-07-01,10.32796299538823
2024-07-02,10.394597978463116
2024-07-03,10.415315585114183
2024-07-05,10.557882105539619
2024-07-08,10.511374333517812
2024-07-09,10.510001539132992
2024-07-10,10.577386518715535
2024-07-11,10.410119143259859
2024-07-12,10.394569677238687
2024-07-15,10.43832971511345
2024-07-16,10.357533164627512
2024-07-17,10.264060741999641
2024-07-18,10.264060741999641
2024-07-19,10.264060741999641
2024-07-22,10.299076846102485
2024-07-23,10.276218047219153
2024-07-24,9.749474034728443
2024-07-25,9.689159856779456
2024-07-26,9.689159856779456
2024-07-29,9.635588653278578
2024-07-30,9.578768602140844
2024-07-31,9.618599360675162
2024-08-01,9.569593716768546
2024-08-02,9.397832399356531
2024-08-05,9.271657771768647
2024-08-06,9.279163690496794
2024-08-07,9.183581811169184
2024-08-08,9.232124591320323
2024-08-09,9.17320170501468
2024-08-12,9.089068828392715
2024-08-13,9.195858072730498
2024-08-14,9.246984705133357
2024-08-15,9.2697676914269
2024-08-16,9.317864225937303
2024-08-19,9.37015793394296
2024-08-20,9.365671888720284
2024-08-21,9.39395045642223
2024-08-22,9.370459326895514
2024-08-23,9.384880889726215
2024-08-26,9.321708517834368
2024-08-27,9.322171730171096
2024-08-28,9.333411994764756
2024-08-29,9.409099601137752
2024-08-30,9.431748108691412
2024-09-03,9.37958730191891
2024-09-04,9.280920958427576
2024-09-05,9.269929839696495
2024-09-06,9.268403656257126
2024-09-09,9.312334036700747
2024-09-10,9.421812323493423
2024-09-11,9.449094520490526
2024-09-12,9.504516150028156
2024-09-13,9.475811148031074
2024-09-16,9.486269522942095
2024-09-17,9.45628780871063
2024-09-18,9.42743379608287
2024-09-19,9.458425315239648
2024-09-20,9.415392232292799
2024-09-23,9.425360761927525
2024-09-24,9.422797877886698
2024-09-25,9.360527056195735
2024-09-26,9.316391425161392
2024-09-27,9.33395638237179
2024-09-30,9.452141168134279
2024-10-01,9.4588771407494
2024-10-02,9.509477296712394
2024-10-03,9.63407326437249
2024-10-04,9.808180923809779
2024-10-07,9.81384831220057
2024-10-08,9.967985325693569
2024-10-09,9.992623600095314
2024-10-10,9.99995040536637
2024-10-11,10.087516322015116
2024-10-14,10.028471457275526
2024-10-15,9.997746546602404
2024-10-16,10.064412488365855
2024-10-17,10.015600748271016
2024-10-18,10.077009339146613
2024-10-21,10.561871499722887
2024-10-22,10.6231503322674
2024-10-23,10.610937568962349
2024-10-24,10.644083064421253
2024-10-25,10.7469770803032
2024-10-28,10.906044995614586
2024-10-29,11.106372468888914
2024-10-30,11.091281712157762
2024-10-31,11.025021942408145
2024-11-01,10.832128658623947
2024-11-04,10.680767855291222
2024-11-05,10.91430722410908
2024-11-06,11.082763994762193
2024-11-07,14.123930172019165
2024-11-08,15.671935040912935
2024-11-11,15.555277364751852
2024-11-12,15.567710126740817
2024-11-13,15.307774659691068
2024-11-14,15.327143620710357
2024-11-15,15.56834278180212
2024-11-18,15.542910845997525
2024-11-19,16.521022426746246
2024-11-20,16.60298684952764
2024-11-21,16.290181943414936
2024-11-22,17.06799628530494
2024-11-25,16.58937865519239
2024-11-26,17.04418965379587
2024-11-27,17.023513619985437
2024-11-29,17.401043304242673
2024-12-02,17.488974606133006
2024-12-03,18.784760442131564
2024-12-04,18.961760774989834
2024-12-05,19.31141879863916
2024-12-06,20.470604791992322
2024-12-09,18.018328696256138
2024-12-10,17.899094485919676
2024-12-11,18.02212619660624
2024-12-12,18.074528109051
2024-12-13,18.292491534318096
2024-12-16,18.721012803405294
2024-12-17,18.965449490642712
2024-12-18,17.926358340213593
2024-12-19,18.049642311059493
2024-12-20,18.18527197098527
2024-12-23,18.12302385502921
2024-12-24,18.173125650248515
2024-12-26,18.283127065381606
2024-12-27,17.74822224533487
2024-12-30,17.60942116410116
2024-12-31,17.189454583814044
2025-01-02,17.625770697519023
2025-01-03,18.214831534480297
2025-01-06,18.02533108304102
2025-01-07,16.92271603606569
2025-01-08,16.86698423621681
2025-01-10,16.586453829909065
2025-01-13,16.62824372961146
2025-01-14,16.771643712814654
2025-01-15,17.165660277395347
2025-01-16,17.144345342682996
2025-01-17,17.676940382915365
2025-01-21,17.537776036838924
2025-01-22,18.20053079584764
2025-01-23,18.252514453509814
2025-01-24,18.193175271432715
2025-01-27,17.209367850027796
2025-01-28,17.673342348111778
2025-01-29,17.819626281447412
2025-01-30,17.797906463925564
2025-01-31,17.904675135615392
2025-02-03,17.993279407355377
2025-02-04,19.47705000917933
2025-02-05,19.02854138786396
2025-02-06,19.89314376130833
2025-02-07,19.741197145237496
2025-02-10,20.284743930043078
2025-02-11,19.82545481438126
2025-02-12,20.218343538525613
2025-02-13,22.63723793686433
2025-02-14,23.711882628341765
2025-02-18,23.639969507014516
2025-02-19,22.90690882198938
2025-02-20,20.74077988876501
2025-02-21,20.74077988876501
2025-02-24,20.723028745366832
2025-02-25,20.30265837137023
2025-02-26,20.118556492102062
2025-02-27,20.118556492102062
2025-02-28,20.118556492102062
2025-03-03,20.13940547096243
2025-03-04,19.939479779553256
2025-03-05,19.908833430226046
2025-03-06,19.935099673370193
2025-03-07,19.995075832933466
2025-03-10,19.977126760431286
2025-03-11,19.977126760431286
2025-03-12,19.977126760431286
2025-03-13,19.977126760431286
2025-03-14,19.977126760431286
2025-03-17,19.977126760431286
2025-03-18,19.977126760431286
2025-03-19,19.977126760431286
2025-03-20,19.977126760431286
2025-03-21,19.977126760431286
2025-03-24,19.977126760431286
2025-03-25,19.977126760431286
2025-03-26,19.977126760431286
2025-03-27,19.977126760431286
2025-03-28,19.977126760431286
2025-03-31,19.977126760431286
2025-04-01,19.977126760431286
2025-04-02,19.977126760431286
2025-04-03,19.977126760431286
2025-04-04,19.977126760431286
2025-04-07,19.977126760431286
2025-04-08,19.977126760431286
2025-04-09,19.977126760431286
2025-04-10,19.977126760431286
2025-04-11,19.977126760431286
2025-04-14,19.977126760431286
2025-04-15,19.977126760431286
2025-04-16,19.977126760431286
2025-04-17,19.977126760431286
2025-04-21,19.977126760431286
2025-04-22,19.977126760431286
2025-04-23,19.977126760431286
2025-04-24,19.977126760431286
2025-04-25,19.977126760431286
2025-04-28,19.977126760431286
2025-04-29,19.977126760431286
2025-04-30,19.977126760431286
2025-05-01,19.977126760431286
2025-05-02,19.977126760431286
2025-05-05,19.977126760431286
2025-05-06,19.977126760431286
2025-05-07,19.977126760431286
2025-05-08,19.977126760431286
2025-05-09,19.977126760431286
2025-05-12,19.977126760431286
2025-05-13,19.977126760431286
2025-05-14,19.977126760431286
2025-05-15,19.977126760431286
2025-05-16,19.977126760431286
2025-05-19,20.121334203311665
2025-05-20,20.06540241440038
2025-05-21,19.752450118344974
2025-05-22,19.905080305675675
2025-05-23,19.605856742425026
2025-05-27,19.795932212146198
2025-05-28,19.808262491904507
2025-05-29,19.672678765780283
2025-05-30,20.499400879368103
2025-06-02,20.637199025455274
2025-06-03,20.761922276638657
2025-06-04,20.399036176598973
2025-06-05,19.620301404978044
2025-06-06,19.68209100246751
2025-06-09,19.613878543223297
2025-06-10,19.674181977321613
2025-06-11,19.956667963487387
2025-06-12,19.79341696091496
2025-06-13,19.5913612541894
2025-06-16,20.05835467030683
2025-06-17,19.560258516604286
2025-06-18,19.52806430525328
2025-06-20,19.315021640371185
2025-06-23,19.74488275602222
2025-06-24,19.95497846324815
2025-06-25,20.025358808231047
2025-06-26,20.184912495694206
2025-06-27,19.143311162517094
2025-06-30,19.552265678971445
2025-07-01,18.918481889103788
2025-07-02,19.0890934460071
2025-07-03,19.418113545771394
2025-07-07,19.818049397550055
2025-07-08,19.782520245958576
2025-07-09,20.16809321352621
2025-07-10,19.55877735646446
2025-07-11,19.404739059117325
2025-07-14,19.96343567726562
2025-07-15,20.116412636808693
2025-07-16,20.52473219668471
2025-07-17,21.03193674763933
2025-07-18,20.8788941993718
2025-07-21,20.673543464601302
2025-07-22,20.265811594290618
2025-07-23,20.843653195842013
2025-07-24,20.894595449885657
2025-07-25,21.29023496863082
2025-07-28,21.307122582038534
2025-07-29,21.255154373305693
2025-07-30,21.46665156051093
2025-07-31,21.556681865159295
2025-08-01,20.902944086261872
2025-08-04,21.6983299644884
2025-08-05,22.81808383477859
2025-08-06,23.346830458265458
2025-08-07,23.313687255528343
2025-08-08,23.71800221812662
2025-08-11,23.46718070140743
2025-08-12,23.8520370223712
2025-08-13,23.3052924475892
2025-08-14,23.06426489802764
2025-08-15,22.8720123808785
2025-08-18,22.648153392954693
2025-08-19,21.718918018659835
2025-08-20,21.718918018659835
2025-08-21,21.718918018659835
2025-08-22,21.718918018659835
2025-08-25,21.95795407764823
2025-08-26,22.442623217319614
2025-08-27,22.2109535118363
2025-08-28,22.851510592431836
2025-08-29,22.70418575466569
2025-09-02,22.60880444647539
2025-09-03,22.838457344170045
2025-09-04,23.530083869303063
2025-09-05,23.418953699351075
2025-09-08,24.77356269846821
2025-09-09,24.833581926194114
2025-09-10,24.958651317768428
2025-09-11,25.28033922244081
2025-09-12,25.416690995530587
2025-09-15,26.0394109794226
2025-09-16,26.249861821863966
2025-09-17,26.37132075413603
2025-09-18,27.06495996022907
2025-09-19,27.849085984387923
2025-09-22,27.99361152091977
2025-09-23,27.629062253639376
2025-09-24,27.315034222215253
2025-09-25,26.85551933788512
2025-09-26,27.594199644285936
2025-09-29,28.629578973200935
2025-09-30,28.483686210867244
2025-10-01,28.893932147289
2025-10-02,28.82580289045903
2025-10-03,28.653338338919305
2025-10-06,27.75874155521812
2025-10-07,27.944786584542797
2025-10-08,28.02818705091554
2025-10-09,28.146871012224434
2025-10-10,27.688172118077226
2025-10-13,27.72298281038099
2025-10-14,27.318039803594772
2025-10-15,29.096128368995288
2025-10-16,28.742486352335334
2025-10-17,28.70389284804299
2025-10-20,29.524182951250395
2025-10-21,29.37140716151132
2025-10-22,28.49569700063276
2025-10-23,29.19295726981545
2025-10-24,30.359631069966987
2025-10-27,31.18852097352042
2025-10-28,31.722399471029497
2025-10-29,32.059116303704805
2025-10-30,31.083485138173643
2025-10-31,31.109494535580943
2025-11-03,31.174430285462506
2025-11-04,29.778086201658674
2025-11-05,30.606270209716953
2025-11-06,29.068367651808416
2025-11-07,28.947063850484444
2025-11-10,29.364170701441836
2025-11-11,28.46348944915322
2025-11-12,28.68988177484738
2025-11-13,27.694059371872683
2025-11-14,28.275872165725044
2025-11-17,27.78193986001162
2025-11-18,26.954730117208477
2025-11-19,26.334926416286418
2025-11-20,26.17121532414232
2025-11-21,26.17121532414232
2025-11-24,26.348569765022006
2025-11-25,26.67376396138519
2025-11-26,26.57701302397627
2025-11-28,26.543749841274277
2025-12-01,26.17322425959905
2025-12-02,26.122665033930975
2025-12-03,26.044997818417443
2025-12-04,25.99522945430702
2025-12-05,26.033713292818824
2025-12-08,25.800429444731922
2025-12-09,25.87113299395983
2025-12-10,25.93699753166562
2025-12-11,25.773283425513174
2025-12-12,25.707209390097393
2025-12-15,25.631908524385196
2025-12-16,25.537805551381933
2025-12-17,25.173724570807963
2025-12-18,25.301530801624182
2025-12-19,25.37264286555163
2025-12-22,25.41038778447426
2025-12-23,25.425461450610754
2025-12-24,25.91835928980114
2025-12-26,25.858681116816392
2025-12-29,26.33348849981605
2025-12-30,26.178049731643306
2025-12-31,25.77256023546081
2026-01-02,27.445610317333802
2026-01-05,27.67249556666016
2026-01-06,29.39941779276642
2026-01-07,29.127538229252785
2026-01-08,28.292150944993296
2026-01-09,29.602244778216942
2026-01-12,29.786272909424632
2026-01-13,29.371729088143766
2026-01-14,29.078664920884293
2026-01-15,29.64986768853977
2026-01-16,31.04715695031873
2026-01-20,30.936269022992718
2026-01-21,32.21846077980067
2026-01-22,32.45110318297658
2026-01-23,32.63421092388733
2026-01-26,32.07629267554703
2026-01-27,33.37458886860228
2026-01-28,34.62705553126468
2026-01-29,34.76272143236722
2026-01-30,33.33447947334227
2026-02-02,34.539115387743735
2026-02-03,33.45539079778078
2026-02-04,30.946764621868127
2026-02-05,30.946764621868127
2026-02-06,30.946764621868127
2026-02-09,31.012993281710113
2026-02-10,30.71448314610208
2026-02-11,31.75575144643453
2026-02-12,31.700133402739542
2026-02-13,31.796428608231437
2026-02-17,31.556682439523584
2026-02-18,32.13927923564897
2026-02-19,31.974902244298438
2026-02-20,32.449182377685844
2026-02-23,32.21333327170785
2026-02-24,32.22006821218678
2026-02-25,32.6201014228362
2026-02-26,31.995280388751887
2026-02-27,31.755453254034443
2026-03-02,31.66391729628265
2026-03-03,30.614841877582062
2026-03-04,31.043449401436465
2026-03-05,30.967849021949853
2026-03-06,30.424213763243603
2026-03-09,30.960488372251373
2026-03-10,30.93128768990693
2026-03-11,31.144981492393423
2026-03-12,30.29131600761636
2026-03-13,30.131841055790133
2026-03-16,29.852270388571938
2026-03-17,30.14952345580311
2026-03-18,29.560295702485362
2026-03-19,29.265379594947483
2026-03-20,28.904420514005338
2026-03-23,28.95931589906558
2026-03-24,28.95931589906558
2026-03-25,28.95931589906558
2026-03-26,28.95931589906558
2026-03-27,28.95931589906558
2026-03-30,28.95931589906558
2026-03-31,28.95931589906558
2026-04-01,28.95931589906558
2026-04-02,28.95931589906558
2026-04-06,28.95931589906558
2026-04-07,28.95931589906558
2026-04-08,28.95931589906558
2026-04-09,28.95931589906558
2026-04-10,28.95931589906558
2026-04-13,29.80608874655908
2026-04-14,29.768922800086237
2026-04-15,30.117846936763698
2026-04-16,30.809819504891056
2026-04-17,31.51391693840445
2026-04-20,31.76986119139995
2026-04-21,32.286852639288284
2026-04-22,32.725874544844984
2026-04-23,33.99550221594034
2026-04-24,37.52622393008352
2026-04-27,37.41716098426838
2026-04-28,36.752901768732265
2026-04-29,39.50723294172187
2026-04-30,40.40023619330729
2026-05-01,41.57489022567136
2026-05-04,40.53696559856718
2026-05-05,43.984593352372514
2026-05-06,45.49511163741896
2026-05-07,43.35320399292022
2026-05-08,48.043512035122134
2026-05-11,49.17516949434473
2026-05-12,46.41263082441179
2026-05-13,47.83654664430175
2026-05-14,47.33706539727396
2026-05-15,45.05562264409278
2026-05-18,43.717069949685275
2026-05-19,44.16639951143598
2026-05-20,47.11943417124571
